0.159642401,0.171772978,0.475361993,0,0.030894309,0.141449683,0.247703117,0.254032258,0.189557417,0.173451669,0.144302326,0.059697856,0.199533528,0.026310463,0.062401551,0.054759617,0.048836112,0.028754598,0.057800224,0.391544661,0.502180809,0.254237288,0.056640625,0.062525212,0.032915693,0.046383183,0.048865361,0.121905711,0.058318941,0.004041917,0.007243333,0.011662329,0.339365367,0.341537155,0.290662756,0.125558212,0.053668336,0.032018989,0.129118412,0.449685324,0.692539677,0.673480729,0.132100771,0.251883144,0.620928608,0.202885253,0.27232547,0.417355222,0.940131424,0.432970224,0.313931904,0.532296867,0.543478261,0.822115385,0.472589792,0.307692308,0.188811189,0.580555556,0.114035088,0.320987654,0.448979592,0.685714286,0.565217391,0.557721139,0.647321429,    'ECG-003faf18-8a8f-4557-ab68-0b5c12a3bc95_qrs_manual.txt',3.733333333,2
0.359477124,0.205570902,0.216721854,0.246438243,0.171171171,0.366148399,0.492896175,0.563356164,0.324832483,0.243307171,0.187412008,0.158391622,0.226367347,0.246602214,0.250687831,0.217400268,0.274331551,0.254670353,0.238929288,0.591574233,0.760309278,0.153782555,0.127753304,0.118637581,0.115413254,0.107875223,0.311529966,0.300924055,0.223319747,0.291083631,0.249260577,0.291316184,0.537467504,0.629456621,0.422253326,0.224149812,0.159139587,0.157133614,0.17294587,0.232126899,0.298726412,0.287611293,0.222819923,0.230982675,0.505573064,0.196059148,0.188805073,0.696195386,0.712620014,0.512984846,0.358567857,0.369252069,0.263504611,0.519230769,0.434782609,0.504807692,0.415384615,0.484313725,0,0,0.523809524,1,0.642857143,0.763546798,0.637362637,    'ECG-0044dc19-1fbf-4cd1-87b1-53c21544a3d1_qrs_manual.txt',8.766666667,3
0.296803653,0.465814917,0.286401161,0.250829777,0.157894737,0.248181573,0.474547023,0.345930233,0.147556691,0.233082707,0.34178117,0.168109162,0.171834101,0.111614928,0.22008547,0.176193514,0.203993524,0.200683132,0.22008547,0.430657901,0.345459952,0.402684564,0.21969697,0.328184658,0.272058824,0.145929102,0.258158644,0.267689513,0.20117413,0.207932169,0.252699969,0.204973573,0.351706416,0.337131034,0.334955568,0.352643146,0.36225141,0.289334817,0.232272724,0.318997018,0.499871149,0.468422796,0.331068195,0.288916093,0.441695516,0.285194417,0.328340384,0.144618628,0.371050911,0.178490762,0.165151754,0.229429121,0.652173913,0.484615385,0.374812594,0.371352785,0.346153846,0.395833333,0.114035088,0.163522013,0.052206929,0.224561404,0.297297297,0.503042596,0.621428571,    'ECG-00672136-a695-4757-a38a-8cdd8fd755bc_qrs_manual.txt',6.4,3
0.545722714,0.257222386,0.398385762,0.365079365,0.241025641,0.429064039,0.358483113,0.390060241,0.282559025,0.373111396,0.457043478,0.276898208,0.304250871,0.267471959,0.385624555,0.375915975,0.358582594,0.397584525,0.349028001,0.719332049,0.653304492,0.367413887,0.358433735,0.305843663,0.283992285,0.225547555,0.515312615,0.41965398,0.387147407,0.44281356,0.426450511,0.422879125,0.493670934,0.447385889,0.477869927,0.505446315,0.42233649,0.35362157,0.321447136,0.341572957,0.204330778,0.324407353,0.236088099,0.224290272,0.347046137,0.039143079,0.158412402,0.254259875,0.259504961,0.336384951,0.299660637,0.240869211,0.298913043,0.477130977,0.422705314,0.465696466,0.364864865,0.38,0,0,0.116921769,0.284444444,0.461538462,0.693383038,0.439393939,    'ECG-008f1585-7b2a-4c9c-a697-155296f57826_qrs_manual.txt',10.76666667,4
0.641025641,0.354281768,0.42018543,0.417187035,0.273712737,0.479396552,0.439260193,0.4375,0.324832483,0.436619718,0.566990291,0.307892238,0.309508197,0.438550694,0.391098662,0.581846222,0.474153298,0.460101926,0.419464486,0.707514451,0.673149016,0.577627119,0.296089385,0.257048093,0.221102941,0.262033916,0.558134215,0.577213728,0.504011333,0.516778395,0.492427548,0.519151298,0.555379899,0.521231356,0.644014012,0.613906269,0.603595699,0.489340203,0.411419876,0.209582841,0.21208307,0.158259878,0.193815041,0.154310274,0.342072065,0.086549204,0.153989396,0.116207876,0.332016393,0.467290694,0.382973549,0.203789061,0.303336704,0.28980322,0.132555673,0.215384615,0.181730769,0.117829457,0.02,0,0.102040816,0.217687075,0.212765957,0.407224959,0.408834586,    'ECG-0094e896-241a-4077-a22b-0da4e5714121_qrs_manual.txt',12.73333333,5
0.120772947,0.077492696,0.150662252,0.122807018,0.079189687,0.261288998,0.211021974,0.318181818,0.274587459,0.293465712,0.323233831,0.178223336,0.1888,0.183008558,0.202126338,0.067926456,0.169715733,0.224785263,0.165438398,0.385356455,0.547680412,0.569007264,0.510638298,0.284730195,0.272058824,0.246983292,0.162928869,0.196771634,0.159031925,0.152930215,0.174372112,0.144592363,0.203148428,0.337309334,0.552959664,0.487069814,0.395507504,0.29140246,0.279278444,0.106586497,0.073051259,0.417290642,0.193502931,0.140997398,0.515144689,0.276309409,0.299491361,0.094642919,0.059993135,0.25488829,0.130525299,0.113049147,0.322061192,0.259615385,0.603864734,0.398860399,0.259615385,0.436781609,0.101960784,0,0,0.024242424,0.102564103,0.125760649,0.258928571,    'ECG-00974114-ee55-40b4-bdb1-35885f033ead_qrs_manual.txt',7.933333333,3
0.339728217,0.075448895,0.13598234,0.156272183,0.124744376,0.033386486,0.176609768,0.21875,0.202496771,0.208818126,0.222657952,0.158391622,0.222370821,0.134806577,0.18499102,0.233434842,0.218601629,0.250277901,0.216424901,0.322768359,0.547680412,0.468235581,0.374233129,0.245802239,0.231412362,0.222100602,0.217565426,0.178425885,0.193641203,0.203864146,0.251891391,0.147158621,0.156707689,0.269491308,0.426575775,0.366604882,0.281584235,0.266472193,0.305952918,0.495962445,0.129324383,0.170875018,0.122308403,0.250377886,0.131084225,0.270239641,0.161824466,0.175775644,0.114080279,0.191211196,0.168993678,0.172867439,0.262368816,0.576923077,0.582298137,0.297082228,0.234491315,0.38,0,0.083333333,0,0.191452991,0.382352941,0.467672414,0.439393939,    'ECG-00f9470a-4e06-4bc8-b693-6b1b6f5e0518_qrs_manual.txt',6.2,3
0.257806826,0.162473167,0.225920027,0.194282001,0.124744376,0.349591652,0.405737705,0.304775281,0.202496771,0.253848673,0.299758454,0.227284629,0.165350318,0.254820352,0.301474727,0.349028001,0.282936315,0.277284954,0.275295914,0.44450419,0.495002754,0.367413887,0.318965517,0.253260016,0.272058824,0.232546979,0.269852865,0.303830012,0.297240811,0.27584633,0.23334307,0.286619237,0.264689174,0.294187941,0.392602322,0.375708676,0.315854126,0.304294177,0.269636963,0.183461974,0.148259363,0.170711482,0.150537274,0.162419309,0.380194337,0.206087764,0.231829407,0.247676959,0.311740668,0.354495323,0.201670061,0.139990208,0.420757363,0.346153846,0.203804348,0.302884615,0.276923077,0.260784314,0.264814815,0.163522013,0.204081633,0.437606838,0.4,0.397044335,0.323660714,    'ECG-017311d2-9ded-453e-a67d-dbad8dad8b36_qrs_manual.txt',6.8,3
0.42432196,0.304506644,0.357714738,0.37122807,0.223880597,0.341529235,0.328833173,0.278846154,0.298971074,0.380540121,0.417722222,0.292007797,0.274418605,0.097905282,0.481686295,0.349028001,0.448811288,0.545635286,0.402242378,0.554913295,0.663137364,0.682426405,0.596153846,0.495270128,0.497618061,0.421531439,0.359882615,0.522943489,0.450905596,0.475226912,0.493215845,0.416163692,0.341482395,0.42550176,0.646442854,0.609302653,0.504705079,0.517566872,0.454102701,0.515334848,0.145989842,0.202517976,0.120438553,0.084582118,0.150090169,0.048155376,0.085410616,0.034372488,0.092220979,0.067718095,0.083932066,0.052602925,0.383631714,0.02532833,0.11148272,0.110453649,0.077884615,0.063333333,0.022807018,0,0,0,0.045454545,0.024294671,0.051785714,    'ECG-02165095-56d8-4dde-986a-13ebed22861c_qrs_manual.txt',10.96666667,4
0.207907294,0.056123844,0.086296485,0.114363449,0.061728395,0.104338154,0.075838823,0.175,0.153264107,0.177659058,0.175081301,0.094896332,0.13244898,0.007834381,0.062401551,0.104615247,0.112234515,0.02626288,0.06009214,0.307271068,0.42882211,0.187744459,0.127753304,0.128747567,0.085705882,0.035285828,0.086361411,0.091329724,0.096107124,0.103159141,0.085520033,0.062327877,0.077653826,0.199584046,0.237646478,0.19892718,0.147917799,0.11390067,0.085844827,0.484329479,0.273141661,0.315435213,0.32546182,0.322011135,0.553297383,0.217092312,0.346252604,0.421772907,0.46458766,0.417884204,0.315702899,0.289945259,0.724637681,0.649038462,0.769927536,0.603076923,0.519230769,0.876923077,0.110638298,0,0.259026688,0.516129032,0.535714286,0.698938992,0.647321429,    'ECG-0251bde6-c40c-4efc-9598-fba0e01135c3_qrs_manual.txt',2.9,1
0.268579838,0.168633042,0.225920027,0.209415945,0.151515152,0.131798195,0.0667881,0.134615385,0.110044592,0.169301523,0.179141104,0.158391622,0.168571429,0.226775956,0.306001188,0.308846176,0.309826203,0.310893731,0.306001188,0.317533719,0.366081118,0.221432477,0.246073298,0.284730195,0.317815126,0.28177244,0.257776148,0.303212769,0.274617493,0.272168332,0.276052718,0.200079124,0.124327661,0.078427975,0.168104903,0.238871643,0.265309695,0.31258233,0.271959774,0.277123185,0.166856404,0.168528852,0.096267824,0.138227392,0.118423085,0.188895376,0.351313877,0.407521041,0.272736865,0.083484567,0.072325677,0.075844924,0.315568022,0.194711538,0.135869565,0.208436725,0.097355769,0.35625,0.027083333,0.201550388,0.280612245,0.345098039,0.03030303,0.030541872,0.133640553,    'ECG-025f402c-e950-408e-9c1e-b98e4e4668f6_qrs_manual.txt',3.533333333,2
0.359477124,0.209210679,0.357714738,0.28331467,0.211678832,0.401101533,0.343481655,0.390060241,0.25909133,0.337905695,0.556858974,0.348325359,0.304250871,0.385147146,0.310576321,0.375915975,0.418801013,0.434227672,0.39663755,0.662516674,0.597807094,0.468235581,0.476027397,0.625552239,0.554543459,0.489372014,0.369076567,0.353345065,0.362087226,0.383421452,0.388310952,0.414681426,0.394362272,0.457927735,0.457747314,0.51091687,0.674850905,0.597011026,0.502995523,0.113297503,0.207814703,0.283208107,0.094243181,0.132556907,0.248058623,0.08069695,0.208831621,0.215670748,0.163255595,0.06920002,0.084651586,0.048839989,0.211352657,0.274886878,0.372670807,0.123076923,0.259615385,0.221666667,0.044067797,0.073446328,0.262700825,0.308148148,0.019230769,0,0.025261324,    'ECG-0278bac2-b284-4395-ba95-1aef4416f270_qrs_manual.txt',10.4,4
0.464480874,0.546580301,0.980641875,0.749373434,0.636363636,0.743642241,0.222986074,0.583333333,0.60620462,0.817893275,1,0.637958533,0.728957529,0.215349,0.198635217,0.258643042,0.186470348,0.326047688,0.275295914,0.610913719,0.298254875,0.229366249,0.296089385,0.37700387,0.221102941,0.277738915,0.43040194,0.491200645,0.480662238,0.551400473,0.632711271,0.461376142,0.331513978,0.341278859,0.554558142,0.60497377,0.645478859,0.570907203,0.539785936,0.25553162,0.330295757,0.577791924,0.409021768,0.399174535,0.342926978,0.042279138,0.357416767,0.479824468,0.35600059,0.184962857,0.441996346,0.305556245,0.200228833,0.207692308,0.371853547,0.323076923,0.448426573,0.253333333,0.068421053,0.361111111,0.314285714,0.17414966,0.06122449,0.33256705,0.313122924,    'ECG-035bbb81-b9a6-4edb-a442-c1e6dc96de06_qrs_manual.txt',10.8,4
0.456187895,0.224293493,0.344955201,0.353070175,0.185185185,0.357796765,0.133906833,0.196428571,0.316039604,0.41167002,0.388548387,0.231455833,0.226367347,0.385147146,0.40791433,0.422114402,0.442665471,0.447013487,0.374866196,0.572919331,0.715084614,0.73705489,0.45,0.337489025,0.37477445,0.357777645,0.438953628,0.446796005,0.417010883,0.478071589,0.412457505,0.405647216,0.261023233,0.384381413,0.670606066,0.591779744,0.414508213,0.395483556,0.340283052,0.141573985,0.098712291,0.219540062,0.10770554,0.130353297,0.287060648,0.020655198,0,0.026696895,0.205509575,0.252110434,0.111887609,0.063958467,0.057208238,0.079881657,0.117508813,0.138067061,0.14033264,0.162393162,0,0,0,0.022222222,0.125,0.028130672,0.029591837,    'ECG-036d02ea-d009-44a3-981c-ff2044220220_qrs_manual.txt',10.43333333,4
0.596707819,0.354281768,0.607997962,0.510095995,0.413333333,0.59683908,0.683060109,0.625,0.42362888,0.48163206,0.5986,0.367273323,0.400160214,0.643127364,0.599862967,0.6582397,0.528786721,0.65438343,0.567839568,0.719332049,0.822085238,0.512297693,0.401898734,0.495270128,0.335913313,0.421531439,0.640921875,0.68031476,0.674976458,0.643960976,0.717708726,0.671511844,0.804167613,0.699943523,0.674217482,0.641528583,0.62405737,0.509603067,0.581357573,0.059626625,0.092911515,0.234120467,0.187349504,0.190448428,0.206988588,0.098746759,0.16182824,0.243922297,0.389536932,0.226725499,0.386869843,0.169238659,0,0.043269231,0.092506938,0.143589744,0.043269231,0.07755102,0.136842105,0,0.120262391,0.195918367,0.244897959,0.447473937,0.23015873,    'ECG-03b774cd-f1cf-4b5d-900b-0d3fa3b4a3c0_qrs_manual.txt',15.83333333,5
0.263157895,0.21290172,0.203347824,0.269005848,0.171171171,0.268,0.343481655,0.471153846,0.25909133,0.305633803,0.329323308,0.235690236,0.247238095,0.176191206,0.227513228,0.187033907,0.253554193,0.233122478,0.254686129,0.504466632,0.580541237,0.475313191,0.4375,0.197652514,0.148568803,0.122508817,0.247668487,0.326406522,0.225805258,0.285957303,0.32330709,0.277299962,0.312192498,0.484373624,0.429423633,0.45151183,0.333676976,0.292636553,0.275014528,0.271002651,0.358104544,0.379284359,0.254098668,0.25096967,0.351916203,0.225266485,0.312452269,0.167093664,0.1278988,0.432969257,0.425493125,0.376254206,0.525946704,0.551682692,0.543478261,0.382133995,0.519230769,0.484313725,0,0.036111111,0.024401065,0.099224806,0.485714286,0.660243408,0.534562212,    'ECG-03def87f-a22f-4a57-be29-bfda262fe950_qrs_manual.txt',9.6,4
0.285285285,0.205570902,0.370860927,0.313840156,0.211678832,0.410248147,0.358483113,0.471153846,0.25909133,0.318214371,0.361197917,0.211204339,0.251599147,0.271778414,0.344033579,0.422114402,0.296174414,0.341682723,0.306001188,0.512524085,0.580541237,0.440915017,0.25,0.214078859,0.322261663,0.311290504,0.313154769,0.377632936,0.386730057,0.36357536,0.374155206,0.398927484,0.436367561,0.437158083,0.497878977,0.465138241,0.384263711,0.354359359,0.349194872,0.140552551,0.145548669,0.206260976,0.245104763,0.224255575,0.358116353,0.130593032,0.257188899,0.159988128,0.286024101,0.310330407,0.157571404,0.143008241,0.494071146,0.288461538,0.332125604,0.443438914,0.623076923,0.324786325,0.085245902,0.037356322,0.068721366,0.32248062,0.342105263,0.375582479,0.355102041,    'ECG-04282ed5-4d6d-4709-82d8-de1f752a9afe_qrs_manual.txt',9.9,4
0.198653199,0.085886489,0.286401161,0.246438243,0.059649123,0.248181573,0.18784153,0.134615385,0.071799986,0.109824592,0.075647668,0.055706276,0.080272109,0.159692592,0.168624101,0.250080257,0.218601629,0.170520231,0.209207854,0.385356455,0.345459952,0.122979898,0.122270742,0.081432836,0.108272059,0.098520963,0.198466624,0.184327344,0.311579055,0.237154989,0.131690482,0.265871865,0.09354728,0.153799494,0.175401341,0.135391446,0.105503262,0.099180408,0.102474681,0.218145439,0.169587425,0.397675965,0.308938298,0.145511198,0.433486805,0.156340155,0.370656623,0.401714432,0.430643462,0.312002119,0.232405946,0.160440225,0.504658385,0.445054945,0.428194993,0.502564103,0.319526627,0.335294118,0.082978723,0.141304348,0.405328798,0.735632184,0.769230769,0.769655172,0.662857143,    'ECG-0453bb89-be0b-4150-b023-ca239e95f78e_qrs_manual.txt',3.166666667,1
0.314685315,0.220441989,0.314639989,0.28331467,0.20383693,0.429064039,0.405737705,0.360294118,0.352310231,0.358651911,0.395663957,0.354525457,0.348869565,0.332215599,0.319875776,0.387084825,0.390495868,0.385910005,0.344033579,0.173410405,0.653304492,0.64205688,0.555555556,0.48857113,0.340570934,0.388459158,0.338257384,0.382334838,0.360559138,0.377805929,0.404112728,0.444893282,0.407550474,0.462424383,0.657688456,0.565397629,0.48040781,0.444268815,0.456409159,0.149933956,0.175047847,0.260215058,0.109813963,0.152616113,0.2710368,0.289698473,0.13930207,0.118906756,0.103136053,0.076729143,0.273428608,0.13318676,0.255754476,0.259615385,0.434782609,0.184615385,0.392931393,0.253333333,0.086666667,0,0,0,0.023255814,0.454310345,0.18125,    'ECG-048fa463-e1bb-4455-912d-9ffac5327d64_qrs_manual.txt',10.83333333,4
0.44,0.294434712,0.314639989,0.28331467,0.20383693,0.318161894,0.247703117,0.318181818,0.342962131,0.388106416,0.499939394,0.262508122,0.251599147,0.271778414,0.22008547,0.225343321,0.200424877,0.204608441,0.22008547,0.554913295,0.748673806,0.577627119,0.596153846,0.20087368,0.313419118,0.208652392,0.453163472,0.479863105,0.336368045,0.30988944,0.346388457,0.291888646,0.384696567,0.465862772,0.613891526,0.617162017,0.506443188,0.435324614,0.371479822,0.249257488,0.381088394,0.452258942,0.393747813,0.400816071,0.410310119,0.082284006,0.075650662,0.114634492,0.068464912,0.340192264,0.172539467,0.235159777,0.390189521,0.452662722,0.82345191,0.685314685,0.566433566,0.723809524,0,0,0,0,0.25,0.347413793,0.575396825,    'ECG-04b11d60-8f37-4aa0-b113-aa050203a844_qrs_manual.txt',11.06666667,4
0.189620758,0.142096752,0.225920027,0.128590708,0.098265896,0.366148399,0.358483113,0.318181818,0.25909133,0.270288397,0.256666667,0.158391622,0.260519481,0.084755214,0.055525606,0.113628126,0.222339384,0.254670353,0.096688855,0.473526012,0.467353952,0.329566855,0.230769231,0.182004669,0.117833998,0.117547925,0.106033686,0.163827208,0.168782582,0.188237163,0.20448992,0.250578733,0.25814254,0.314480997,0.426863998,0.322816494,0.269284455,0.173003347,0.199411161,0.313488309,0.449590746,0.436914093,0.106387532,0.146261953,0.632822028,0.193291999,0.270640458,0.374423926,0.470998833,0.362081824,0.356609319,0.400675599,0.782608696,0.639053254,0.603864734,0.25994695,0.537135279,0.59375,0.072222222,0.081761006,0.244010648,0.622222222,0.666666667,0.687192118,0.785714286,    'ECG-04c26ae5-4e83-4025-ad23-1e36b91aac01_qrs_manual.txt',5.2,2
0.333333333,0.270631906,0.377584551,0.33574394,0.219753086,0.61003487,0.405737705,0.390060241,0.316039604,0.344699778,0.448908046,0.286888019,0.309508197,0.2345863,0.359187109,0.453183521,0.374271801,0.352384779,0.431298082,0.385356455,0.737262094,0.622881356,0.525179856,0.444179104,0.401061057,0.421531439,0.321479779,0.453266709,0.428000166,0.407015423,0.387257222,0.41363592,0.35223727,0.520308291,0.596692546,0.55355246,0.50466756,0.446633117,0.460349219,0.243182155,0.15653749,0.184371473,0.197254433,0.194388066,0.163166084,0.242825167,0.123633025,0.099355554,0.098773945,0.148424244,0.126185907,0.094130701,0.625823452,0.292899408,0.381903643,0.436590437,0.504395604,0.316666667,0.09122807,0,0,0,0.069767442,0.260723297,0.18125,    'ECG-04db354e-0d35-46c6-ae3d-4072065b2190_qrs_manual.txt',11.36666667,4
0.380116959,0.168633042,0.297461369,0.205561072,0.142250531,0.199606998,0.260473588,0.230263158,0.195971321,0.281690141,0.367874016,0.231455833,0.1888,0.307943121,0.310576321,0.370422108,0.333552575,0.352384779,0.296996165,0.43752779,0.467353952,0.497175141,0.4375,0.371852394,0.296323529,0.29835721,0.338851179,0.317974883,0.364472685,0.304047417,0.303262441,0.309094525,0.203458186,0.256016916,0.412655619,0.449728911,0.391068763,0.332281157,0.299312679,0.227052725,0.113710895,0.224440079,0.098951339,0.126121002,0.215349095,0.177553666,0.305928875,0.10122734,0.111659355,0.145069742,0.233882392,0.085887558,0.248447205,0.346153846,0.279503106,0.302884615,0.566433566,0.316666667,0.1,0,0.024401065,0,0.153846154,0.326628352,0.032366071,    'ECG-04fd2ddc-f62f-4150-abc8-af2f742e2b74_qrs_manual.txt',7.6,3
0.176470588,0.205570902,0.254966887,0.201754386,0.171171171,0.166767848,0.19930975,0.254032258,0.215894156,0.23815621,0.294100719,0.14601259,0.162169982,0.284975615,0.296996165,0.318582541,0.261742314,0.281942887,0.209207854,0.410663446,0.563841474,0.489780658,0.425324675,0.268656716,0.253002772,0.202125091,0.245063333,0.301931165,0.31828174,0.241159719,0.263567919,0.198952801,0.229917354,0.289946736,0.45465687,0.402730028,0.330521746,0.25724955,0.242147396,0.051569063,0.164498398,0.233075101,0.143460021,0.200429871,0.315044718,0.199887317,0.235708489,0.092728184,0.093368229,0.223025271,0.129352605,0.139964385,0.072463768,0.251748252,0.197628458,0.323076923,0.100496278,0.2375,0.025,0,0.095527573,0.026666667,0.277777778,0.421107628,0.345238095,    'ECG-0507112f-f33a-48e3-9f14-070bcd9e8ef4_qrs_manual.txt',6.7,3
0.099415205,0.101473297,0.101986755,0.106186519,0.063829787,0.122402375,0.18784153,0.603873239,0.090355702,0.264722191,0.191625,0.076531909,0.171834101,0.176191206,0.238929288,0.237537585,0.203993524,0.212567593,0.165438398,0.473526012,0.355636631,0.367413887,0.309659091,0.188173963,0.156774022,0.127555613,0.143942122,0.210744542,0.180903867,0.162820931,0.172230497,0.084355625,0.173613842,0.093768403,0.260071194,0.321857399,0.197271874,0.159921389,0.106083905,0.069858494,0.07571512,0.089227798,0.117787499,0.096998094,0.35805949,0.112427373,0.425547766,0.072438425,0.280005822,0.241800252,0.157379189,0.19406504,0.080515298,0,0.116459627,0.07977208,0.259615385,0.469135802,0.175675676,0.270833333,0.084183673,0.317117117,0.5,0.419950739,0.538571429,    'ECG-05268268-c88f-466d-900c-bc26590c7850_qrs_manual.txt',2.333333333,1
0.490196078,0.244413293,0.357714738,0.33574394,0.288888889,0.401101533,0.286885246,0.304775281,0.324832483,0.419826652,0.457043478,0.324612701,0.251599147,0.491436535,0.455858374,0.58988764,0.581468951,0.593499981,0.488352917,0.554913295,0.653304492,0.489780658,0.425324675,0.502064147,0.300525797,0.404679321,0.528236819,0.464166303,0.47649908,0.519930211,0.584932233,0.453837027,0.313080567,0.416143036,0.598965082,0.589932593,0.552337353,0.440023818,0.432415647,0.138467533,0.072476596,0.067410575,0.04861926,0.11267086,0.177438795,0.093010274,0.091108714,0.192219326,0.205883773,0.113260533,0.283616056,0.061267217,0.025879917,0,0,0,0.072450805,0.061788618,0.022807018,0,0,0.066666667,0.108695652,0.187068966,0.064732143,    'ECG-052966cc-2395-41b2-9b52-5d08b3d479b8_qrs_manual.txt',11,4
0.092592593,0.092421331,0.101986755,0.088075519,0.04,0.229270861,0.314525353,0.304775281,0.164961951,0.259242958,0.305498783,0.178223336,0.096326531,0.162931769,0.212799194,0.258643042,0.203993524,0.196793346,0.191749951,0.512524085,0.563841474,0.497175141,0.419354839,0.310210312,0.245656812,0.222100602,0.142052594,0.194412767,0.183840504,0.156476608,0.133395136,0.158240804,0.300669442,0.348601261,0.399854519,0.420883056,0.346123941,0.265906696,0.19206965,0.073054884,0.09153247,0.082289257,0.085266377,0.078010702,0.406607632,0.13909121,0.292975717,0.072673042,0.120317452,0.20295396,0.201791685,0.046968415,0.120772947,0.074175824,0,0.11965812,0.159763314,0.168888889,0.046428571,0,0,0.02601626,0.277777778,0.161964472,0.073979592,    'ECG-05749c81-496c-4409-91c5-fb46cb362b45_qrs_manual.txt',7.133333333,3
0.120772947,0.056123844,0.086296485,0.100877193,0.063829787,0.223158307,0.104035309,0.134615385,0.136413641,0.204174688,0.187412008,0.083228329,0.07375,0.125920646,0.135078913,0.176193514,0.211229947,0.189118432,0.165438398,0.430657901,0.335540911,0.314329738,0.2421875,0.172966941,0.168067227,0.15415976,0.10938154,0.133594621,0.14097555,0.157676606,0.158426839,0.164293506,0.132674759,0.09396127,0.292394688,0.257076469,0.19419425,0.153403256,0.144814096,0.183671967,0.127259771,0.190636989,0.084072234,0.152204115,0.496184714,0.148665702,0.372804191,0.248637369,0.324888778,0.311576867,0.153673503,0.105009224,0.334448161,0.415384615,0.40257649,0.07977208,0.192307692,0.211111111,0,0.201550388,0.273768044,0.658823529,0.6,0.687192118,0.517857143,    'ECG-05d003e9-7c1c-421b-a2eb-86f959b65881_qrs_manual.txt',3,1
0.189620758,0.133886922,0.216721854,0.264367816,0.124744376,0.268,0.328833173,0.563356164,0.266766299,0.331228752,0.329323308,0.168109162,0.140987013,0.204254868,0.238929288,0.254341164,0.328706337,0.331204794,0.292564745,0.367318493,0.58910162,0.622881356,0.517857143,0.234902411,0.154014308,0.09623032,0.190309699,0.270176306,0.248371599,0.326599543,0.271939084,0.261576811,0.268035614,0.3442675,0.547111547,0.510529342,0.338333313,0.228456586,0.207085142,0.150397885,0.167838046,0.243752392,0.147733864,0.116247236,0.318978334,0.136964275,0.148757665,0.047103526,0.132982738,0.305127254,0.33932207,0.287210983,0.388198758,0.519230769,0.543478261,0.326340326,0.486778846,0.521568627,0.072222222,0.118181818,0.02244898,0.023703704,0.444444444,0.827586207,0.714285714,    'ECG-061828a9-6e38-4183-b08d-58bb69da6cc0_qrs_manual.txt',8.3,3
0.44,0.270631906,0.308833131,0.293197021,0.196217494,0.281749369,0.260473588,0.360294118,0.282559025,0.358651911,0.381546667,0.248787343,0.234534161,0.402293071,0.191749951,0.359610647,0.358582594,0.403520166,0.344033579,0.529048692,0.58910162,0.661893629,0.510638298,0.347014925,0.300525797,0.258211535,0.466191378,0.404907229,0.363204018,0.389698634,0.390020858,0.339836982,0.290170274,0.395467421,0.582069852,0.539062392,0.441659564,0.385436314,0.360603893,0.149272236,0.359832956,0.240007295,0.168072644,0.143382132,0.230501842,0.158658482,0.223387822,0.024621524,0.115052702,0.178079888,0.164513656,0.128508808,0.02787068,0.317307692,0.186335404,0.11965812,0.086538462,0.102702703,0,0,0,0.068085106,0.243902439,0.140653358,0.236734694,    'ECG-062d8677-d04f-4099-a71b-76967aebcd03_qrs_manual.txt',10.1,4
0.373134328,0.236187845,0.384411615,0.313840156,0.223880597,0.349591652,0.314525353,0.360294118,0.244163866,0.311871227,0.34178117,0.203508772,0.210714286,0.438550694,0.364353741,0.486124272,0.407282619,0.453519211,0.391098662,0.582163501,0.653304492,0.489780658,0.390625,0.382219338,0.385093168,0.367755373,0.440040726,0.425581206,0.446547483,0.444542908,0.42211661,0.397474511,0.456469916,0.455964028,0.498562306,0.444069415,0.406003203,0.378900231,0.355648979,0.075485757,0.187917269,0.21638328,0.136779544,0.165983175,0.227146619,0.061560878,0.171203101,0.147347245,0.168304437,0.110105203,0.070576266,0.050877043,0.028604119,0.136639676,0.028604119,0.085020243,0.084199584,0.032478632,0,0,0.022907122,0.253968254,0.125,0.084392015,0.08877551,    'ECG-064d3ee9-8f2b-4356-b1b0-fb1ee537de56_qrs_manual.txt',10,4
0.842696629,0.527220808,0.811258278,0.660690187,0.487179487,0.651463512,0.511741249,0.506578947,0.520229801,0.623742455,0.820883534,0.547093223,1,1,1,1,1,1,1,0.572919331,0.950972352,1,1,1,1,1,1,1,1,1,1,1,0.596121331,0.735302558,0.990082451,1,1,1,1,0.020092792,0.024806607,0.094284933,0.035214831,0.070698282,0.008027614,0.131166639,0.0307894,0,0.000153298,0.000529333,0,0.034733598,0,0,0.036231884,0,0,0,0.135820896,0,0,0,0,0,0.016183036,    'ECG-06d56231-c017-4a5b-90a3-84513fb07312_qrs_manual.txt',21.23333333,5
0.242165242,0.153522099,0.249967537,0.229446164,0.151515152,0.217137672,0.260473588,0.318181818,0.202496771,0.233082707,0.246621622,0.149047833,0.238706986,0.289469798,0.227513228,0.289954721,0.300678097,0.341682723,0.329379615,0.417228041,0.516873389,0.447600859,0.328488372,0.272609923,0.272058824,0.26980198,0.271653082,0.255874478,0.302681304,0.310165349,0.32988765,0.284944923,0.34299998,0.285437949,0.439833285,0.343531026,0.303686213,0.263470837,0.288623678,0.0958965,0.240380682,0.261573013,0.158873864,0.122375082,0.142469914,0.204517026,0.344251747,0.1435203,0.178923514,0.148894915,0.118734952,0.158045259,0.175315568,0.401985112,0.407608696,0.293706294,0.274886878,0.144761905,0,0,0,0.112280702,0.314285714,0.501077586,0.345238095,    'ECG-072002e3-1a31-4053-9074-26ce964438ee_qrs_manual.txt',7.333333333,3
0.9437751,0.21290172,0.314639989,0.313840156,0.223880597,0.392122746,0.636451302,0.625,0.352310231,0.403667287,0.433050847,0.313369631,0.361011378,0.159692592,0.315200915,0.410175483,0.461327768,0.415593799,0.319875776,0.546143113,0.60666138,0.527882003,0.503521127,0.444179104,0.335913313,0.343253852,0.412939773,0.397492856,0.386477362,0.45769351,0.433308442,0.381644298,0.417334232,0.447362917,0.541854764,0.539727643,0.496331734,0.437470957,0.474746715,0.377969288,0.225008501,0.186856669,0.095371454,0.133971452,0.307275907,0.14672684,0.27430564,0.209779121,0.181159527,0.133436975,0.18493218,0.203298735,0.362318841,0.288461538,0.211352657,0.085020243,0.109311741,0.233333333,0.13,0.073446328,0.067346939,0.115942029,0.022727273,0.160344828,0.18125,    'ECG-075dd31d-9b3a-4445-9ef1-aa4053da9aa2_qrs_manual.txt',11,4
0.076142132,0.081645181,0.162117674,0.106186519,0.045685279,0.156429598,0.314525353,0.390060241,0.244163866,0.253848673,0.179141104,0.09015047,0.08473644,0.125920646,0.156049693,0.179775281,0.126486056,0.13566814,0.115326352,0.43752779,0.704306773,0.489780658,0.300561798,0.23849823,0.195065045,0.180249393,0.109343624,0.162211463,0.165855337,0.103526077,0.098209961,0.074044383,0.396080456,0.477005802,0.469190708,0.358456668,0.237401963,0.181513178,0.161658287,0.12608666,0.226371027,0.322238866,0.1990006,0.159213457,0.521737262,0.260167162,0.150519025,0.20691888,0.306644595,0.14748787,0.100653665,0.07092489,0.217391304,0.230769231,0.442834138,0.430769231,0.581538462,0.422222222,0,0,0.023384354,0.112280702,0.28125,0.258026159,0.345238095,    'ECG-081622a6-b3bd-473e-8b7c-2ac85383f940_qrs_manual.txt',7.2,3
0.020576132,0.069443264,0.033360153,0.176384074,0.04,0.188343328,0.154826958,0.21875,0.170957096,0.181924883,0.277605634,0.083228329,0.043975155,0.022099004,0.069436784,0.081601666,0.07523511,0.031264504,0.033689274,0.430657901,0.325869845,0.06436387,0.063241107,0.0545372,0.085705882,0.085053084,0.046238334,0.073063435,0.053687674,0.094529248,0.071953379,0.050655245,0.204380371,0.178097301,0.169904996,0.136908521,0.110898748,0.077611821,0.072637183,0.212186875,0.280228418,0.26897923,0.355424505,0.354830406,0.862127699,0.119546,0.502966504,0.985742973,0.884092937,0.661359053,0.323238854,0.183143664,0.56710775,0.406354515,0.64229249,0.56,0.432692308,0.658666667,0,0.276595745,0.641399417,0.723809524,0.76,0.769655172,0.675465839,    'ECG-081fb01d-ebd4-48b1-bee4-4dacaf28d5ae_qrs_manual.txt',2.333333333,1
0.291005291,0.205570902,0.245033113,0.293197021,0.164444444,0.295953263,0.235210264,0.291666667,0.244163866,0.275943662,0.323233831,0.188758934,0.199533528,0.307943121,0.334210296,0.422114402,0.338450923,0.403520166,0.391098662,0.496541268,0.60666138,0.475313191,0.37962963,0.297256733,0.279971228,0.277738915,0.325417724,0.387911255,0.337049229,0.362056661,0.342904681,0.364962106,0.295951641,0.339692754,0.413415118,0.40353464,0.334592076,0.307312354,0.284147201,0.129584882,0.132269957,0.118440237,0.182500357,0.103594017,0.206467095,0.164203302,0.175844751,0.120586156,0.159623551,0.23428371,0.156413424,0.091342255,0.255754476,0.230769231,0.223785166,0.190045249,0.183257919,0.2,0,0,0.04880213,0.053333333,0.361111111,0.488669951,0.453125,    'ECG-0846c131-541e-459a-a7c9-7bb0e9c401d8_qrs_manual.txt',8.2,3
0.416666667,0.252887996,0.351287712,0.365079365,0.185185185,0.318161894,0.343481655,0.318181818,0.282559025,0.351614109,0.361197917,0.219126247,0.256025779,0.303248664,0.344033579,0.318582541,0.19338447,0.336416185,0.250687831,0.417228041,0.563841474,0.482494123,0.363636364,0.414925373,0.260504202,0.285850288,0.45278866,0.421072491,0.396012107,0.396361425,0.341232364,0.3238339,0.309076977,0.345118019,0.47021084,0.499810547,0.45648282,0.39036804,0.36501995,0.229774646,0.228769401,0.357439505,0.38846073,0.19608713,0.380092059,0.224064756,0.229330776,0.220050494,0.272338743,0.07314928,0.165429036,0.174451874,0.362318841,0.477130977,0.573671498,0.369230769,0.458144796,0.668518519,0.092857143,0,0.023384354,0.16969697,0.095238095,0.309437387,0.632936508,    'ECG-08672072-313d-4979-816e-46842bbfb660_qrs_manual.txt',8.833333333,3
0.359477124,0.240270104,0.357714738,0.330143541,0.264,0.479396552,0.314525353,0.390060241,0.298971074,0.318214371,0.417722222,0.286888019,0.256025779,0.352649638,0.40791433,0.506858758,0.487299465,0.577127961,0.449603175,0.582163501,0.715084614,0.595287309,0.510638298,0.469024739,0.345283676,0.388459158,0.397023822,0.433141289,0.442765453,0.490263302,0.516136333,0.453042515,0.349063441,0.49646019,0.587553839,0.532084302,0.493621571,0.430542397,0.389324229,0.152324265,0.128725819,0.137501776,0.108481389,0.123221959,0.201505037,0.138849125,0.161406362,0.128543102,0.102153882,0.083758702,0.200348325,0.066938686,0.030193237,0.081983806,0.085812357,0,0,0.061788618,0.044827586,0,0,0.023188406,0,0.106896552,0.083976834,    'ECG-08943a01-1fd2-46b3-ba14-2daa5bc3d438_qrs_manual.txt',11.8,5
0.291005291,0.224293493,0.260032455,0.225336067,0.133333333,0.357796765,0.314525353,0.266304348,0.189557417,0.305633803,0.323233831,0.181687094,0.168571429,0.176191206,0.242809995,0.271800493,0.296174414,0.301047504,0.315200915,0.163209793,0.350515464,0.128909048,0.116883117,0.139215427,0.096758703,0.125021338,0.274987632,0.33502989,0.337773279,0.316409229,0.287159084,0.33139899,0.30579777,0.223671533,0.30650229,0.405586258,0.26229058,0.219103151,0.216503043,0.265024209,0.293677494,0.219017795,0.169301224,0.165088554,0.34214645,0.296650616,0.436865138,0.502043603,0.583499121,0.594542113,0.520135176,0.300530116,0.475543478,0.472027972,0.223785166,0.326340326,0.259615385,0.211111111,0.069642857,0.353741497,0.547536088,0.41025641,0.78125,0.855172414,0.725,    'ECG-08cbfe6f-60d6-4ab5-bd49-cfe5fe0933ad_qrs_manual.txt',6.666666667,3
0.247311828,0.184751381,0.265165563,0.25528106,0.2,0.274819244,0.211021974,0.21875,0.202496771,0.281690141,0.329323308,0.231455833,0.251599147,0.347452541,0.40791433,0.387084825,0.309826203,0.326047688,0.329379615,0.529048692,0.580541237,0.271770894,0.443708609,0.161303574,0.168067227,0.211964513,0.33123728,0.385498469,0.367313116,0.330593587,0.404063624,0.305767224,0.314474087,0.268532348,0.286297199,0.433871467,0.344312754,0.275282063,0.342758494,0.049341226,0.036907052,0.16241637,0.171522891,0.175482557,0.205071908,0.081454201,0.145561273,0.436119339,0.114443558,0.444566978,0.387586114,0.186196523,0.031969309,0,0.062111801,0.126696833,0.089010989,0.07037037,0,0,0.191637631,0.02601626,0.243243243,0.367456897,0.207142857,    'ECG-08d0d550-78cd-4aa0-8445-b13b82b37616_qrs_manual.txt',7,3
0.291005291,0.144900519,0.270367572,0.172932331,0.127572016,0.274819244,0.222986074,0.070945946,0.170957096,0.243307171,0.266990741,0.117659418,0.13244898,0.284975615,0.296996165,0.349028001,0.291716687,0.326047688,0.310576321,0.404196104,0.474111402,0.396610169,0.348214286,0.257048093,0.249310662,0.232546979,0.29658586,0.295053539,0.266956232,0.260268935,0.283345212,0.274678882,0.105200586,0.160197952,0.353038125,0.378008301,0.276430957,0.233500582,0.216433441,0.180246607,0.107834069,0.198191619,0.096954572,0.107633861,0.291495749,0.176004119,0.102057748,0.222256871,0.175027953,0.214686961,0.103025564,0.089656355,0.169836957,0.194711538,0.305706522,0.17369727,0.301488834,0.253333333,0.08125,0,0,0.106666667,0.575757576,0.517241379,0.621428571,    'ECG-08d6238a-3c2d-41f9-a4df-301298b89815_qrs_manual.txt',5.633333333,3
0.257806826,0.236187845,0.467082197,0.213319924,0.142250531,0.333605826,0.18784153,0.207474227,0.215894156,0.305633803,0.34178117,0.192369034,0.199533528,0.246602214,0.374866196,0.318582541,0.233766234,0.352384779,0.334210296,0.546143113,0.509470151,0.454381536,0.407643312,0.297256733,0.221102941,0.151391491,0.297394249,0.412361923,0.419270273,0.283778427,0.319183294,0.341732757,0.267055295,0.310692191,0.437293027,0.429662831,0.374105012,0.29579205,0.248436155,0.193230484,0.196586967,0.430198802,0.195024334,0.118069761,0.337804518,0.055006635,0.177258805,0.161272446,0.172313685,0.277074617,0.246462056,0.244502769,0.559947299,0.224532225,0.440658049,0.625310174,0.274886878,0.387037037,0,0,0,0.312195122,0.578947368,0.660243408,0.75952381,    'ECG-092028a2-cfc2-4e8e-847a-36a89f626c8a_qrs_manual.txt',7.333333333,3
0.320813772,0.156468258,0.332565505,0.221279004,0.192488263,0.366148399,0.358483113,0.345930233,0.202496771,0.293465712,0.354625323,0.161588181,0.199533528,0.303248664,0.334210296,0.375915975,0.323911383,0.391714836,0.319875776,0.563837339,0.634156267,0.489780658,0.431372549,0.249511604,0.279971228,0.26980198,0.320118713,0.321409789,0.331587876,0.305445999,0.347689181,0.322801091,0.401528044,0.428211646,0.433597488,0.440999465,0.397480452,0.294053203,0.309625402,0.147382167,0.080019853,0.261167355,0.117657617,0.122796286,0.383700087,0.111236771,0.164925625,0.115168275,0.129149824,0.274524485,0.144213763,0.1191698,0.159846547,0.157342657,0.197628458,0.195804196,0.091628959,0.140740741,0.151666667,0,0.023881893,0.101587302,0.256410256,0.565922921,0.313852814,    'ECG-09569d1f-1e4b-41f2-9937-4ca8ecb087b8_qrs_manual.txt',8.766666667,3
0.44,0.205570902,0.412803532,0.308565531,0.185185185,0.392122746,0.314525353,0.345930233,0.251558489,0.337905695,0.395663957,0.286888019,0.274418605,0.363227258,0.419464486,0.479378322,0.424661843,0.453519211,0.385624555,0.529048692,0.563841474,0.421407012,0.374233129,0.361736771,0.37477445,0.28177244,0.394117971,0.421606111,0.413120084,0.399011562,0.401216772,0.393754329,0.380625977,0.366086387,0.49447119,0.474703755,0.4244466,0.419982125,0.358985272,0.180828886,0.082609865,0.172014933,0.117027162,0.102451612,0.27517227,0.160924581,0.202113845,0.216718761,0.335500008,0.267443347,0.194380359,0.217265073,0.27173913,0.112266112,0.17626322,0.174636175,0.173076923,0.227350427,0,0,0.210459184,0.471317829,0.525,0.534482759,0.384693878,    'ECG-096fa519-96fd-48b9-9de5-5fc5c83ca0c0_qrs_manual.txt',9.4,4
0.237084218,0.139326971,0.297461369,0.213319924,0.161147903,0.281749369,0.154826958,0.207474227,0.251558489,0.259242958,0.317234568,0.199742856,0.171834101,0.156482861,0.202126338,0.19816597,0.163217856,0.200683132,0.18499102,0.466097807,0.60666138,0.497175141,0.291666667,0.155630936,0.182783019,0.089469676,0.190437919,0.23932846,0.244760867,0.201196751,0.225327047,0.211754982,0.226969832,0.303781825,0.503151571,0.393873037,0.266081982,0.267737699,0.176311698,0.330166316,0.237926264,0.484907715,0.34100319,0.32234222,0.497722385,0.137980528,0.121227296,0.131006817,0.285181225,0.597512086,0.456873104,0.381665242,0.776397516,0.623076923,0.797101449,0.692307692,0.519230769,0.531182796,0,0,0,0.293333333,0.71875,0.734913793,0.628826531,    'ECG-097ba268-4339-4d6b-9c9f-5323dd94e51f_qrs_manual.txt',6.7,3
0.012683917,0.336824405,0.025849178,0.053293611,0.004524887,0.172046955,0.104035309,0.16460396,0.110044592,0.120070423,0.006636364,0.035144773,0.274418605,0.039327703,0.053268091,0.067926456,0.046541694,0.046717281,0.053268091,0.410663446,0.393435725,0.128909048,0,0.024875622,0.041900952,0.035285828,0.036188404,0.157302104,0.060832732,0.064145939,0.041363593,0.06338579,0.116882546,0.179242146,0.117606106,0.068735162,0.012174466,0.03040333,0.053852432,0.20836877,0.993009406,0.315970128,0.248813149,0.214276895,0.729814104,0.086973467,0.369838262,0.627532153,1,0.360190124,0.298585581,0.414759779,0.839920949,0.747692308,0.897920605,0.897435897,0.802447552,0.828205128,0,0.046099291,0.396158463,0.697435897,0.761904762,0.826018809,0.900621118,    'ECG-097d153f-24ed-40e5-bd7e-e3714dc6581a_qrs_manual.txt',1.933333333,1
0.320813772,0.21290172,0.326504359,0.28331467,0.154684096,0.448610646,0.260473588,0.266304348,0.222772277,0.293465712,0.283026005,0.168109162,0.251599147,0.211614701,0.223781407,0.258643042,0.19338447,0.18533237,0.22008547,0.673438465,0.460695876,0.415081287,0.363636364,0.170010413,0.191950464,0.18944526,0.240639674,0.3357205,0.311583962,0.259964253,0.242661963,0.351597829,0.414367401,0.265291653,0.418592401,0.373630153,0.300325884,0.260066695,0.276720885,0.307097424,0.329069782,0.4007633,0.378936701,0.289916923,0.49434793,0.018079772,0.304624412,0.204228383,0.19312876,0.443252772,0.33072667,0.33107456,0.543478261,0.366515837,0.50951087,0.486352357,0.657692308,0.492592593,0,0,0,0.246153846,0.558823529,0.768318966,0.614955357,    'ECG-09a139b0-6ed2-497d-884c-36f9ec0518b6_qrs_manual.txt',6.433333333,3
0.128205128,0.099172797,0.150662252,0.119962067,0.139240506,0.161562575,0.085060315,0.185606061,0.06291693,0.130707814,0.171070707,0.083228329,0.12967033,0.114427164,0.137997593,0.187033907,0.176328617,0.196793346,0.137997593,0.373245252,0.371407114,0.221432477,0.216080402,0.128747567,0.125220904,0.100830538,0.113534282,0.184239006,0.163173591,0.14371546,0.199816772,0.09881417,0.132775187,0.158847761,0.173620618,0.199232285,0.147849698,0.13906665,0.127242785,0.177835104,0.190247402,0.279687502,0.16108671,0.269117861,0.470202302,0.141906855,0.408137178,0.355987852,0.25330631,0.28167105,0.211736933,0.261304344,0.25083612,0.461538462,0.201288245,0.398860399,0.556318681,0.316666667,0,0.235507246,0.342970522,0.566666667,0.571428571,0.514687101,0.538571429,    'ECG-09d231c7-e868-4452-8721-78c15f4bb79d_qrs_manual.txt',3.433333333,1
0.394402036,0.248618785,0.384411615,0.324627358,0.215686275,0.341529235,0.286885246,0.266304348,0.316039604,0.419826652,0.402896175,0.227284629,0.256025779,0.457738982,0.449603175,0.543165979,0.455031599,0.440583412,0.515908289,0.563837339,0.673149016,0.73705489,0.571428571,0.481965174,0.423319328,0.415841584,0.458901423,0.456131412,0.464756883,0.441929935,0.469150455,0.445058014,0.319023687,0.382516593,0.661998317,0.584117599,0.496838635,0.402367593,0.415140313,0.077588162,0.087833189,0.107625484,0.099329277,0.153297191,0.092966831,0.088459412,0.085467647,0.005394084,0.123886242,0.088593133,0.048092728,0.060782401,0.02787068,0.106508876,0.08361204,0.028340081,0.027327935,0,0.022807018,0,0,0.022222222,0.11627907,0,0.054511278,    'ECG-09f15c02-c163-43ef-82cf-6df99a166786_qrs_manual.txt',10.6,4
0.257806826,0.171772978,0.178024217,0.250829777,0.151515152,0.217137672,0.0667881,0.106308411,0.183252224,0.228084927,0.266990741,0.137134503,0.476170839,0.250690102,0.195176572,0.148627507,0.287304216,0.310893731,0.250687831,0.307271068,0.539793814,0.447600859,0.274456522,0.172966941,0.224504877,0.229029502,0.280350035,0.270994358,0.197654965,0.344548765,0.308924736,0.2197576,0.062349316,0.238495954,0.405854351,0.326464168,0.296514066,0.226152992,0.287784189,0.172019313,0.360707104,0.384475132,0.179194062,0.157802442,0.264964765,0.293712152,0.072140042,0.151778068,0.239482243,0.32450921,0.205536934,0.254030465,0.237771739,0.301488834,0.449775112,0.380090498,0.194711538,0.460606061,0.141304348,0,0.024943311,0.252631579,0.363636364,0.75862069,0.502164502,    'ECG-0a030b7e-bb8e-4540-8112-e5247d28693b_qrs_manual.txt',5.566666667,3
0.296803653,0.232165181,0.286401161,0.225336067,0.142250531,0.366148399,0.439260193,0.421296296,0.25909133,0.351614109,0.335505051,0.235690236,0.222370821,0.280529499,0.319875776,0.333567416,0.3144721,0.331204794,0.306001188,0.641291308,0.272566531,0.497175141,0.45,0.3875,0.279971228,0.277738915,0.330932762,0.358889218,0.316459743,0.296501954,0.280781255,0.313362569,0.51918316,0.442271923,0.494626518,0.501288107,0.4123201,0.372432491,0.337901252,0.166883481,0.23388462,0.289867193,0.163799874,0.157642426,0.397964086,0.072380556,0.370476868,0.124595231,0.174020716,0.124819997,0.231656631,0.152801766,0.319693095,0.397058824,0.447570332,0.302884615,0.234491315,0.246296296,0,0.112068966,0.022907122,0.071111111,0.179487179,0.450090744,0.548319328,    'ECG-0a4f97c7-26eb-4f5a-b25a-998a5e86032d_qrs_manual.txt',9.9,4
0.242165242,0.194948698,0.280983917,0.201754386,0.178082192,0.141449683,0.439260193,0.16460396,0.136413641,0.181924883,0.311323529,0.140056641,0.12692437,0.134806577,0.069436784,0.125990053,0.1536802,0.097526012,0.175081999,0.3334513,0.441296447,0.340042373,0.274456522,0.1913031,0.140580461,0.145929102,0.181223853,0.188033795,0.201752583,0.182422356,0.211890833,0.120244563,0.169243979,0.18764523,0.286559313,0.293470945,0.27506997,0.139739285,0.14715407,0.361559434,0.554808805,0.587601057,0.332667441,0.537122888,0.394192901,0.266215719,0.336458578,0.163862645,0.22792036,0.461816985,0.327590445,0.176805057,0.427018634,0.5,0.427018634,0.384615385,0.407967033,0.305747126,0.13,0.045138889,0.136884022,0.385185185,0.424242424,0.593869732,0.557692308,    'ECG-0a982a36-d05b-451c-9e5b-20d277038f75_qrs_manual.txt',4.4,2
0.44,0.284685083,0.458940397,0.37122807,0.294117647,0.419567339,0.328833173,0.405487805,0.282559025,0.318214371,0.448908046,0.26722807,0.31485242,0.420081967,0.296996165,0.359610647,0.407282619,0.487230688,0.319875776,0.582163501,0.643645653,0.128909048,0.162790698,0.182004669,0.300525797,0.29835721,0.491278834,0.486100836,0.469057029,0.468074535,0.530341371,0.442616718,0.502656085,0.504771102,0.406812158,0.399259966,0.437773746,0.434211748,0.432182559,0.114173132,0.251235573,0.346198312,0.231366797,0.235529022,0.352769268,0.076591999,0.175993822,0.645632471,0.671256859,0.409278128,0.199100584,0.175398686,0.054347826,0.311538462,0.362318841,0.24852071,0.207692308,0.247154472,0.041269841,0,0.280612245,0.629059829,0.365853659,0.240517241,0.381578947,    'ECG-0a990259-4248-4bd4-976b-50e71e0cd72c_qrs_manual.txt',9.966666667,4
0.274074074,0.171772978,0.297461369,0.221279004,0.2,0.366148399,0.343481655,0.421296296,0.170957096,0.270288397,0.299758454,0.227284629,0.206935961,0.271778414,0.306001188,0.328520696,0.30522845,0.368874089,0.254686129,0.630976176,0.355636631,0.334772081,0.374233129,0.217462687,0.221102941,0.277738915,0.280071562,0.306322658,0.320955453,0.284652297,0.370959948,0.281644613,0.409940132,0.282241664,0.316120129,0.38957882,0.303320279,0.308188302,0.299680812,0.163274929,0.155131873,0.268206505,0.168030706,0.190529152,0.406413847,0.0812976,0.70797,0.23048279,0.21787482,0.319532122,0.332413929,0.160115337,0.27173913,0.227163462,0.287723785,0.370192308,0.445054945,0.409803922,0,0.173333333,0.18707483,0.41025641,0.685714286,0.628803245,0.69047619,    'ECG-0ae27452-b508-4668-b1b6-42c7100a5ba5_qrs_manual.txt',7.433333333,3
0.222222222,0.144900519,0.132413743,0.225336067,0.079189687,0.156429598,0.18784153,0.185606061,0.183252224,0.190636778,0.236844444,0.04796503,0.091614907,0.092580048,0.140941434,0.183388606,0.132352941,0.125776509,0.168624101,0.430657901,0.516873389,0.213667508,0.101265823,0.088041574,0.073012408,0.072218987,0.108177357,0.21212207,0.171597748,0.182195589,0.142111471,0.163257451,0.161350164,0.276363863,0.328110622,0.205660869,0.170527236,0.090075334,0.11313992,0.406480079,0.3085727,0.292437833,0.413036555,0.268474292,0.398382014,0.126750092,0.194894417,0.400750431,0.74590275,0.621674457,0.312921355,0.222296487,0.695652174,0.593406593,0.698757764,0.678062678,0.692307692,0.675555556,0.104,0,0.18707483,0.688172043,0.862068966,0.897931034,0.828571429,    'ECG-0afb41fa-a3a5-4234-a9d7-7c4c61ebf739_qrs_manual.txt',4.7,2
0.163776493,0.079558011,0.150662252,0.095677338,0.079189687,0.217137672,0.247703117,0.278846154,0.25909133,0.318214371,0.23205298,0.087817309,0.171834101,0.039327703,0.086503737,0.027447833,0.05582172,0.021333222,0.031592669,0.481074026,0.643645653,0.489780658,0.061023622,0.113711105,0.014246324,0.03169393,0.075537112,0.121347625,0.088068464,0.07606364,0.082158853,0.091429967,0.327669969,0.353610475,0.467973371,0.306226044,0.196222414,0.069593473,0.102617436,0.535022148,0.318262059,0.607643632,0.29870082,0.431592483,0.835082315,0.12367775,0.12458139,0.156038402,0.695087708,0.568751669,0.503102536,0.415108251,0.498188406,0.498461538,0.951086957,0.717948718,0.908653846,0.730769231,0,0,0,0.457142857,0.7,0.890804598,0.863095238,    'ECG-0b260e88-3c85-46ee-951f-104754900930_qrs_manual.txt',5.7,3
0.380116959,0.244413293,0.280983917,0.365079365,0.232323232,0.490073145,0.247703117,0.278846154,0.229774329,0.324665944,0.348153846,0.276898208,0.274418605,0.322342973,0.385624555,0.381469884,0.413008332,0.473503859,0.402242378,0.651802918,0.555695248,0.319346838,0.234536082,0.227820289,0.217734855,0.218688119,0.329447168,0.436207983,0.360750424,0.433839305,0.443894769,0.437572867,0.379172994,0.357180444,0.440331698,0.374089165,0.33885188,0.334925487,0.321551492,0.163947972,0.148924102,0.192893829,0.200016723,0.131624991,0.291313763,0.030244277,0.19474706,0.300622877,0.480366184,0.39657922,0.356184706,0.321976905,0.319693095,0.300607287,0.248447205,0.232848233,0.245951417,0.221666667,0,0,0.170807453,0.601709402,0.722222222,0.64137931,0.517857143,    'ECG-0b3a3c37-edab-4882-afab-425cf64f5ba5_qrs_manual.txt',8.6,3
0.247311828,0.125966851,0.190457193,0.183413078,0.145299145,0.366148399,0.439260193,0.345930233,0.25909133,0.318214371,0.299758454,0.207328874,0.935299539,0.204254868,0.209207854,0.237537585,0.257628185,0.259105449,0.262804501,0.430657901,0.58910162,0.454381536,0.323699422,0.245802239,0.260504202,0.25442939,0.206154532,0.216635835,0.1919077,0.214325732,0.230730257,0.289218681,0.385735418,0.35948343,0.475435356,0.40908279,0.30543916,0.27450142,0.267857909,0.245165262,0.243303692,0.257009608,0.165856975,0.181606859,0.48280529,0.244406706,0.257427712,0.197821876,0.316625058,0.186478645,0.207035808,0.314968724,0.149925037,0.465517241,0.388198758,0.111405836,0.173076923,0.18627451,0.418644068,0,0.093537415,0.293333333,0.171428571,0.226750261,0.200460829,    'ECG-0b3eaa54-82b4-4e84-8afd-5ddac96875e4_qrs_manual.txt',7.566666667,3
0.44,0.270631906,0.450933173,0.330143541,0.20383693,0.303232759,0.235210264,0.266304348,0.202496771,0.223161189,0.311323529,0.26722807,0.195907336,0.254820352,0.235086627,0.343820225,0.274331551,0.208569762,0.209207854,0.512524085,0.555695248,0.141107777,0.230769231,0.182004669,0.156774022,0.18944526,0.353059402,0.346454892,0.415094819,0.36600969,0.280370681,0.243830429,0.279423062,0.343188398,0.274897425,0.253410923,0.237429586,0.26648058,0.236757816,0.414051429,0.404660393,0.424111343,0.308911316,0.310421944,0.455922707,0.164153366,0.205035186,0.66027567,0.394415931,0.435050369,0.469357056,0.262482277,0.373641304,0.519230769,0.362318841,0.523076923,0.368486352,0.614141414,0.094545455,0,0.420918367,0.646464646,0.5,0.601293103,0.552380952,    'ECG-0b9cc84c-1ef6-43c0-a9c3-f0c2a8d37c9f_qrs_manual.txt',6.3,3
0.274074074,0.142096752,0.16602495,0.221279004,0.116465863,0.113252197,0.405737705,0.16460396,0.215894156,0.248537378,0.266990741,0.168109162,0.602040816,0.280529499,0.283840388,0.294606742,0.296174414,0.326047688,0.271089404,0.209952827,0.524393214,0.50467999,0.407643312,0.342223792,0.292167696,0.277738915,0.267960268,0.27909161,0.239821552,0.277368043,0.270226628,0.187120745,0.156867507,0.233505698,0.449532126,0.399457649,0.336459643,0.296932884,0.290113463,0.136574127,0.108190386,0.154153172,0.153494066,0.108186451,0.17659896,0.334180733,0.155762687,0.111024282,0.12015188,0.125361281,0.129128835,0.230331646,0.475543478,0.368486352,0.471014493,0.4375,0.46898263,0.395833333,0.159183673,0.04248366,0,0.053333333,0.472222222,0.440162272,0.439393939,    'ECG-0bb8ef33-1799-458a-aa0d-67d842531247_qrs_manual.txt',6.266666667,3
0.180802104,0.194948698,0.245033113,0.213319924,0.185185185,0.392122746,0.37385046,0.254032258,0.229774329,0.305633803,0.417722222,0.207328874,0.206935961,0.267471959,0.271089404,0.280788177,0.245524297,0.391714836,0.301474727,0.512524085,0.502180809,0.285459411,0.419354839,0.217462687,0.253002772,0.198908969,0.246243246,0.310844471,0.272842256,0.257301522,0.34329216,0.372472576,0.302374519,0.317709294,0.339401511,0.462894018,0.400158818,0.341757527,0.285115885,0.080768696,0.233431574,0.296829803,0.209131926,0.126304561,0.314739232,0.130220388,0.210070677,0.333341391,0.197644892,0.386385986,0.220272981,0.254327108,0.140252454,0.283216783,0.210378682,0.416873449,0.152714932,0.2,0.046428571,0.040880503,0.33934504,0.421705426,0.564102564,0.623563218,0.6796875,    'ECG-0cdc4339-bb09-4ad7-aad9-1867f7a352b0_qrs_manual.txt',8.2,3
0.481481481,0.244413293,0.314639989,0.319193506,0.223880597,0.333605826,0.286885246,0.421296296,0.244163866,0.305633803,0.402896175,0.292007797,0.309508197,0.512762931,0.43732445,0.528370787,0.528786721,0.545635286,0.374866196,0.582163501,0.60666138,0.447600859,0.496503497,0.371852394,0.504380476,0.469856232,0.5635029,0.459418718,0.44203804,0.480474689,0.485157662,0.379683208,0.418162664,0.474393349,0.463407189,0.482497758,0.441139806,0.508200863,0.49583569,0.112312515,0.089645367,0.099881009,0.056111034,0.101040323,0.167400591,0.117332409,0.244428342,0.164585469,0.097647227,0.140805444,0.061678991,0.051931448,0,0.026627219,0.085812357,0.027613412,0.103846154,0.2,0.042622951,0,0.119409466,0.072727273,0.146341463,0,0.024659864,    'ECG-0cfb2919-9112-4191-bc6a-dc96048aae31_qrs_manual.txt',10.7,4
0.279642058,0.224293493,0.326504359,0.237829674,0.164444444,0.318161894,0.18784153,0.254032258,0.120346918,0.199597586,0.261793103,0.155236576,0.1888,0.219120273,0.242809995,0.271800493,0.323911383,0.341682723,0.334210296,0.554913295,0.371407114,0.229366249,0.162790698,0.210728536,0.143219677,0.132690562,0.278488879,0.362628937,0.308492827,0.310899239,0.333858802,0.338520215,0.306515601,0.14930029,0.256932586,0.289229668,0.282475774,0.228162298,0.211240545,0.242339414,0.341868104,0.304554489,0.153460008,0.17293118,0.28850068,0.052088357,0.485710657,0.278051315,0.399146661,0.333178166,0.409177863,0.340015611,0.441576087,0.458144796,0.494071146,0.358974359,0.503496503,0.376576577,0,0.235507246,0.431711146,0.681481481,0.787878788,0.793103448,0.785714286,    'ECG-0d35a819-c379-48a2-8333-38c3157ba2b8_qrs_manual.txt',5.133333333,2
0.44,0.188104861,0.212208465,0.213319924,0.108481262,0.295953263,0.683060109,0.331896552,0.189557417,0.161168352,0.119627561,0.099751294,0.203209393,0.258993625,0.271089404,0.313689521,0.270093383,0.315892974,0.22008547,0.529048692,0.480970467,0.076709527,0.198529412,0.178963672,0.214400116,0.202125091,0.315871398,0.313682169,0.273058045,0.230509117,0.261325144,0.264179975,0.338077643,0.403305237,0.236984873,0.191975601,0.175751333,0.200075902,0.215989424,0.320905907,0.214978226,0.172801146,0.146334522,0.103978083,0.426050576,0.188063573,0.316676357,0.655135862,0.311362219,0.142203477,0.112289199,0.209014868,0.592885375,0.472027972,0.350631136,0.466666667,0.301488834,0.484313725,0.159649123,0.077380952,0.502148228,0.5,0.344827586,0.221165279,0.655952381,    'ECG-0d36c679-54d3-4928-b1f6-19c449d3e3c2_qrs_manual.txt',6,3
0.320813772,0.162473167,0.314639989,0.390278976,0.25,0.366148399,0.328833173,0.254032258,0.170957096,0.305633803,0.329323308,0.219126247,0.210714286,0.189955764,0.292564745,0.241679033,0.348407347,0.208569762,0.18499102,0.4238921,0.229846206,0.170338983,0.253968254,0.227820289,0.221102941,0.202125091,0.245629453,0.301171963,0.318869808,0.488113313,0.246305634,0.299360481,0.296795636,0.145637851,0.320733663,0.423226352,0.38837504,0.307751586,0.253960571,0.33389393,0.164288868,0.394773913,0.312248064,0.351369976,0.540288457,0.16984564,0.481289294,0.383946184,0.282724975,0.291078509,0.305732705,0.21446399,0.434782609,0.503496503,0.691699605,0.358974359,0.415384615,0.558823529,0.1625,0.518115942,0.355898457,0.253968254,0.394736842,0.855172414,0.701612903,    'ECG-0d3ab4c4-4328-454a-82b5-5d53b0ff7971_qrs_manual.txt',5.833333333,3
0.291005291,0.071424503,0.537497763,0.229446164,0.055555556,0.223158307,0.286885246,0.360294118,0.215894156,0.177659058,0.140655106,0.099751294,0.135260907,0.089950302,0.101905622,0.104615247,0.132352941,0.088555827,0.064728659,0.373245252,0.280927835,0.267312349,0.2421875,0.144589552,0.096758703,0.098520963,0.112798135,0.130949838,0.163663106,0.176468241,0.099352433,0.117974096,0.309426517,0.324426384,0.319232989,0.253077374,0.166009831,0.120649591,0.117808341,0.353495836,0.273718817,0.773752194,0.3673687,0.261325522,0.789673502,0.274425566,0.523492195,0.433960265,0.281159505,0.296951431,0.33266868,0.252005413,0.652173913,0.678994083,0.794314381,0.717948718,0.623076923,0.678571429,0.023636364,0.163522013,0.465405674,0.533333333,0.75862069,0.822281167,0.745714286,    'ECG-0d794764-e3bd-434e-8b30-fefc6d2bb5e0_qrs_manual.txt',5.633333333,3
0.394402036,0.191503658,0.207750797,0.259793319,0.151515152,0.217137672,0.273531037,0.304775281,0.115156131,0.181924883,0.241700224,0.143015767,0.165350318,0.385147146,0.334210296,0.354291179,0.333552575,0.397584525,0.359187109,0.451589595,0.474111402,0.233398166,0.208955224,0.217462687,0.214400116,0.222100602,0.416654159,0.365858037,0.300898653,0.329099355,0.338159275,0.318216849,0.290848634,0.300183575,0.222825828,0.254753883,0.220950685,0.228118811,0.244631453,0.160398997,0.147711632,0.135376913,0.147144258,0.100829401,0.134236105,0.169545334,0.34290543,0.329364452,0.326829396,0.28348803,0.198022505,0.129601111,0.26439483,0.385714286,0.230566535,0.326340326,0.244343891,0.211111111,0,0.083333333,0.443071966,0.690196078,0.580645161,0.620689655,0.467741935,    'ECG-0d8c34e0-fae1-4aff-b654-1453b3281862_qrs_manual.txt',6.933333333,3
0.394402036,0.194948698,0.240162358,0.28331467,0.148387097,0.333605826,0.37385046,0.421296296,0.266766299,0.311871227,0.361197917,0.152122241,0.14984127,0.29401283,0.36957976,0.40430607,0.401622718,0.409522876,0.431298082,0.582163501,0.634156267,0.535853977,0.469387755,0.23849823,0.26816609,0.277738915,0.345642664,0.366027157,0.334941803,0.398642937,0.34629587,0.372500386,0.464247255,0.436870683,0.507190466,0.482954943,0.36640816,0.275852697,0.266318912,0.223355345,0.12161463,0.094093216,0.14297821,0.088467692,0.206236275,0.13692672,0.210163528,0.110797922,0.151000306,0.334046726,0.101238716,0.044367199,0.191815857,0.02967033,0.031969309,0.11965812,0.02967033,0.033333333,0.020967742,0,0,0.242424242,0.513513514,0.345841785,0.133640553,    'ECG-0d91d691-4e8a-48aa-8438-e9056fa4283d_qrs_manual.txt',9.866666667,4
0.207907294,0.174953959,0.182119205,0.159526724,0.161147903,0.261288998,0.165607226,0.185606061,0.215894156,0.228084927,0.28852381,0.155236576,0.168571429,0.284975615,0.334210296,0.308846176,0.265897178,0.286647399,0.223781407,0.108275765,0.555695248,0.475313191,0.401898734,0.310210312,0.300525797,0.239690722,0.258803586,0.3502093,0.256271951,0.231411693,0.276187459,0.21851432,0.209967446,0.293100154,0.454620904,0.391176793,0.350280364,0.293836798,0.267638939,0.07751075,0.116497564,0.120558309,0.106035526,0.192811626,0.378882061,0.34472077,0.158089934,0.16157309,0.094411825,0.179389227,0.095534071,0.12152926,0.035063114,0.091628959,0.105189341,0.251282051,0.267990074,0.422222222,0.050980392,0,0.023881893,0.08,0.135135135,0.314401623,0.501152074,    'ECG-0d9f88df-60f8-4484-8cef-12a91c10dc80_qrs_manual.txt',6.733333333,3
0.151515152,0.153522099,0.249967537,0.217273954,0.12195122,0.281749369,0.18784153,0.185606061,0.153264107,0.186250369,0.261793103,0.196029981,0.1888,0.211614701,0.250687831,0.233434842,0.287304216,0.166898049,0.246729316,0.546143113,0.410760309,0.262904468,0.257978723,0.2766061,0.103609626,0.258211535,0.19044604,0.254645722,0.239969018,0.273844883,0.220284258,0.227377159,0.254691293,0.160428504,0.255769611,0.289735374,0.305170331,0.287090027,0.271496099,0.105920174,0.159219637,0.317558749,0.17787658,0.226487121,0.38172742,0.057144916,0.355072939,0.354637059,0.293177243,0.230554816,0.353541303,0.143353146,0.412293853,0.380769231,0.326086957,0.504807692,0.393899204,0.422222222,0,0.235507246,0.364795918,0.548571429,0.6,0.550679206,0.423701299,    'ECG-0da4afde-ef1e-4ebc-8227-e57c30d92072_qrs_manual.txt',4.5,2
0.139664804,0.096897578,0.128884361,0.131530484,0.116465863,0.349591652,0.343481655,0.390060241,0.274587459,0.23815621,0.251609977,0.131398455,0.165350318,0.159692592,0.188354912,0.129144125,0.144385027,0.277284954,0.143910763,0.563837339,0.643645653,0.489780658,0.287292818,0.20741122,0.214400116,0.186350778,0.160267895,0.192063241,0.157912042,0.157826516,0.233110784,0.209931546,0.465174011,0.455299885,0.499211672,0.357604279,0.285793922,0.210167947,0.197654774,0.180133539,0.182465475,0.307281543,0.258762781,0.149987075,0.662054688,0.163087129,0.188813543,0.197741704,0.275838299,0.219858988,0.17917451,0.179169262,0.442834138,0.296703297,0.644122383,0.518518519,0.346153846,0.572043011,0,0,0.023384354,0.273504274,0.352941176,0.463218391,0.332908163,    'ECG-0ddd308b-ff61-46a4-bc9f-16875cc4334a_qrs_manual.txt',7.266666667,3
0.207907294,0.101473297,0.146930071,0.169521437,0.12195122,0.303232759,0.405737705,0.603873239,0.25909133,0.259242958,0.266990741,0.109803922,0.098721389,0.19703657,0.175081999,0.229370264,0.183059587,0.228934299,0.266925818,0.488744772,0.615668326,0.497175141,0.266129032,0.20087368,0.198209719,0.130111924,0.198521677,0.172982355,0.195795058,0.187214895,0.212132284,0.271732958,0.315276573,0.42741991,0.492591312,0.373614507,0.278752819,0.19328939,0.136908119,0.204055865,0.152322424,0.161400943,0.181505402,0.182421129,0.391600722,0.085533423,0.180767978,0.192531207,0.327294011,0.360451337,0.185182324,0.166738593,0.412293853,0.461538462,0.27173913,0.334217507,0.143236074,0.37254902,0.069642857,0.112068966,0.045814244,0.328205128,0.606060606,0.712643678,0.717032967,    'ECG-0e026dec-1505-43bc-8c8f-aae349efe3d3_qrs_manual.txt',7.866666667,3
0.106382979,0.144900519,0.146930071,0.149874687,0.142250531,0.156429598,0.049180328,0.088302752,0.125618812,0.173451669,0.213505376,0.134248665,0.098721389,0.143930523,0.171838505,0.148627507,0.138318429,0.156218856,0.168624101,0.379257288,0.416696705,0.299636804,0.2421875,0.197652514,0.120275344,0.183285627,0.131978232,0.200114669,0.141086079,0.167705425,0.183058855,0.13186059,0.063456313,0.127576762,0.278195291,0.265241172,0.229421301,0.20917513,0.167962507,0.134425958,0.234732593,0.318448645,0.27741949,0.384775255,0.334787218,0.141518471,0.267118735,0.205256091,0.265243565,0.305655115,0.311938687,0.095611539,0.362318841,0.593406593,0.585284281,0.717948718,0.407967033,0.524137931,0,0,0.056122449,0.396190476,0.483870968,0.748275862,0.421957672,    'ECG-0e079115-3942-4720-a816-7b409d674e78_qrs_manual.txt',3.5,2
0.203252033,0.110936715,0.125393551,0.134502924,0.113772455,0.248181573,0.211021974,0.185606061,0.141940594,0.161168352,0.129962121,0.072187638,0.175139147,0.179583878,0.22008547,0.213483146,0.203993524,0.237350355,0.202126338,0.3334513,0.410760309,0.170338983,0.234536082,0.182004669,0.170955882,0.186350778,0.181191935,0.21460193,0.186823506,0.176707424,0.203250541,0.212820774,0.19434359,0.237105503,0.229486881,0.207880952,0.17207531,0.155590713,0.215012038,0.18065943,0.168463821,0.203877796,0.141880714,0.163014523,0.426110665,0.273735436,0.24356236,0.45165509,0.297192226,0.240510785,0.153731616,0.237565997,0.504658385,0.680371353,0.582298137,0.653846154,0.519230769,0.7125,0.175,0.176870748,0.633176347,0.833333333,0.785714286,0.763546798,0.571428571,    'ECG-0e64cc0b-2e43-42d7-b1a9-2ef9c4c3f15e_qrs_manual.txt',3.766666667,2
0.257806826,0.168633042,0.297461369,0.269005848,0.192488263,0.392122746,0.328833173,0.21875,0.189557417,0.311871227,0.34178117,0.276898208,0.165350318,0.307943121,0.36957976,0.422114402,0.430592032,0.460101926,0.40791433,0.473526012,0.539793814,0.468235581,0.503521127,0.305843663,0.304775281,0.26980198,0.316545476,0.345674248,0.352754973,0.369473773,0.387653421,0.414914715,0.288114907,0.273913146,0.421614477,0.487044599,0.416747348,0.359120452,0.295676056,0.077279491,0.05967852,0.107589503,0.076433678,0.108153457,0.289464306,0.16079059,0.218364454,0.088502808,0.092579818,0.184712302,0.218067312,0.070142153,0,0,0.093167702,0.092307692,0.115384615,0.032478632,0.165454545,0,0.024401065,0.072727273,0.325,0.260018639,0.129464286,    'ECG-0ee5dcb1-27ef-4489-9c82-81203091e597_qrs_manual.txt',7.9,3
0.373134328,0.184751381,0.265165563,0.264367816,0.174603175,0.392122746,0.358483113,0.21875,0.183252224,0.218309859,0.277605634,0.161588181,0.214545455,0.200628283,0.344033579,0.40430607,0.368983957,0.415593799,0.235086627,0.473526012,0.416696705,0.415081287,0.358433735,0.268656716,0.224504877,0.246983292,0.355980223,0.375520061,0.369747739,0.353147901,0.377549679,0.370040095,0.275890953,0.241842807,0.362264888,0.354045557,0.323461991,0.280842825,0.318801659,0.260108393,0.078788175,0.123191013,0.134134255,0.09655587,0.349606287,0.106306489,0.294183736,0.237154667,0.142512479,0.232040157,0.213445152,0.127997965,0.248447205,0.089010989,0.09057971,0.158371041,0.089010989,0.166666667,0.165454545,0.216666667,0,0.224561404,0.444444444,0.5830721,0.365546218,    'ECG-0f15e61d-2fd1-4ac5-83fd-1e01db92e8cc_qrs_manual.txt',6.7,3
0.545722714,0.331205944,0.492349852,0.438596491,0.339339339,0.4586714,0.551001821,0.360294118,0.342962131,0.403667287,0.527601246,0.348325359,0.484642857,0.661714481,0.708036495,0.809250065,0.774637128,0.830185244,0.698247354,0.488744772,0.796626054,0.595287309,0.61328125,0.450265451,0.395671476,0.218688119,0.648909608,0.670872053,0.665876091,0.705952103,0.716947308,0.650730403,0.422657696,0.531962257,0.624118579,0.632324951,0.59040224,0.575001541,0.539410155,0.041084746,0.011060237,0.02569667,0.015834834,0.044468388,0.062683953,0.192515668,0.051125191,0.124824871,0.062143416,0.144052202,0.146220168,0.223710589,0,0,0,0,0,0,0.368333333,0,0.021178283,0.021333333,0.0625,0.068231842,0.19269103,    'ECG-0f1d3c09-ddbd-466e-a9e7-af6c4d40046d_qrs_manual.txt',13.93333333,5
0.109922757,0.125966851,0.173977406,0.103517957,0.116465863,0.295953263,0.18784153,0.230263158,0.202496771,0.195085406,0.272261072,0.152122241,0.036750169,0.064796216,0.132185073,0.107595506,0.132352941,0.149251519,0.135078913,0.194843151,0.516873389,0.134950598,0.09375,0.030175211,0.025957714,0.044499245,0.110390103,0.188308335,0.167371376,0.106476336,0.15960475,0.235900153,0.190997759,0.307696258,0.352926198,0.214161293,0.128982299,0.08623368,0.031179261,0.250691093,0.340124389,0.411328544,0.208718581,0.298694202,0.627290653,0.362164911,0.225273121,0.510451038,0.802775243,0.883061838,0.672665368,0.254337614,0.52173913,0.445054945,0.603864734,0.387692308,0.538461538,0.514583333,0.178431373,0,0.261034646,0.653763441,0.884615385,0.846264368,0.706168831,    'ECG-0f3bd10b-18dd-4e7f-b1c5-9b3ab0ab0713_qrs_manual.txt',4.666666667,2
0.607476636,0.342541436,0.501065361,0.461152882,0.333333333,0.61003487,0.901639344,0.543918919,0.391734826,0.463081519,0.556858974,0.307892238,0.304250871,0.527474196,0.537558939,0.6582397,0.657056498,0.721488545,0.560111699,0.255328203,0.796626054,0.672070744,0.717948718,0.560094266,0.417647059,0.463527985,0.661993097,0.558882699,0.591424439,0.658374823,0.67934004,0.653963669,0.650023199,0.596112668,0.706185594,0.721479291,0.628884492,0.497509784,0.500670274,0.10596403,0.139168142,0.143767201,0.095634728,0.084691975,0.238207154,0.312103577,0.121501563,0.085058036,0.066930703,0.09866852,0.108697523,0.060718987,0.115633673,0.096601073,0.098814229,0.093645485,0,0.155102041,0.305882353,0.032828283,0.020043732,0.079012346,0.06,0.149157979,0.144518272,    'ECG-0f5b1bfd-555e-4811-91d2-cbe7156a6658_qrs_manual.txt',15.56666667,5
0.279642058,0.198440929,0.303107489,0.269005848,0.236641221,0.281749369,0.094457455,0.154411765,0.222772277,0.318214371,0.361197917,0.203508772,0.178487395,0.307943121,0.324601729,0.318582541,0.401622718,0.453519211,0.402242378,0.473526012,0.563841474,0.604334537,0.489583333,0.361736771,0.26816609,0.236100533,0.319933011,0.376990671,0.350058224,0.366997274,0.420152132,0.345323736,0.180248602,0.228289058,0.517502061,0.494499306,0.436243029,0.343652065,0.289267985,0.122639399,0.152897038,0.229408309,0.100059625,0.17560004,0.187074284,0.062968397,0.104457429,0.015427216,0.135593502,0.164369017,0.220795974,0.150114376,0.197628458,0.173076923,0.287723785,0.369230769,0.196465696,0.23963964,0,0,0,0,0.146341463,0.593869732,0.596320346,    'ECG-0f88d4af-d919-4276-b922-e213bdc254c4_qrs_manual.txt',7.466666667,3
0.517241379,0.284685083,0.297461369,0.417187035,0.20383693,0.490073145,0.439260193,0.454113924,0.361855133,0.419826652,0.499939394,0.463356974,0.242941176,0.357907519,0.419464486,0.459616656,0.390495868,0.508456433,0.359187109,0.601156069,0.772175156,0.64205688,0.396226415,0.37700387,0.234918968,0.311290504,0.409429395,0.445763216,0.392567388,0.444328882,0.445241103,0.411076188,0.481465784,0.615463009,0.678179486,0.604777522,0.516487716,0.507825821,0.330487621,0.257889668,0.193621601,0.115402007,0.222735923,0.090601495,0.313079149,0.134201837,0.109555123,0.119428088,0.344714095,0.324860299,0.396847119,0.11401686,0.281803543,0.112266112,0.029377203,0.232848233,0.05465587,0.19,0.083870968,0,0,0.266666667,0.431818182,0.422614274,0.182773109,    'ECG-0fae1dd8-70ca-4d2f-be2d-9808d4bf07de_qrs_manual.txt',12.8,5
0.308641975,0.205570902,0.297461369,0.33574394,0.283746556,0.392122746,0.343481655,0.4375,0.266766299,0.337905695,0.388548387,0.188758934,0.251599147,0.284975615,0.344033579,0.387084825,0.448811288,0.453519211,0.319875776,0.563837339,0.683344368,0.454381536,0.338235294,0.164179104,0.182783019,0.202125091,0.318131567,0.374263867,0.363444188,0.507454923,0.49809155,0.407016932,0.424226462,0.482646255,0.510083663,0.492633852,0.374331716,0.307383981,0.312782759,0.15988403,0.153231498,0.191052832,0.111099773,0.166909496,0.309021506,0.115675797,0.189837495,0.188652729,0.293121836,0.453081912,0.263232791,0.245733842,0.263504611,0.346153846,0.372670807,0.134615385,0.181730769,0.25982906,0.065,0.035519126,0.137442732,0.339393939,0.432432432,0.519211823,0.335084034,    'ECG-0fe0b004-dfca-4b71-8e8c-2b11ab0100df_qrs_manual.txt',11.03333333,4
0.263157895,0.228200817,0.314639989,0.298245614,0.223880597,0.357796765,0.328833173,0.345930233,0.274587459,0.365816521,0.410247934,0.248787343,0.265081788,0.332215599,0.455858374,0.422114402,0.407282619,0.53048315,0.475105142,0.610913719,0.624831914,0.512297693,0.489583333,0.450265451,0.471494762,0.433135748,0.327426486,0.442666123,0.408977799,0.395587683,0.476085258,0.443501087,0.418880976,0.435757243,0.535509741,0.532841482,0.471420696,0.460098042,0.448178417,0.089472281,0.057617374,0.225654411,0.12026207,0.087771728,0.142869356,0.101630586,0.208064657,0.132194437,0.138636201,0.136439986,0.062559098,0.047827252,0,0,0.060386473,0,0,0.030894309,0,0,0.022008804,0.023703704,0.139534884,0.156433978,0.083976834,    'ECG-100ed606-2212-43b7-a5b2-45061b909238_qrs_manual.txt',10.3,4
0.237084218,0.188104861,0.216721854,0.308565531,0.116465863,0.349591652,0.456674473,0.563356164,0.324832483,0.436619718,0.482321429,0.292007797,0.348869565,0.258993625,0.296996165,0.33866698,0.291716687,0.296198984,0.296996165,0.582163501,0.715084614,0.682426405,0.64,0.502064147,0.504380476,0.377979465,0.288441604,0.34205565,0.28004776,0.383484471,0.272046012,0.29847145,0.569306625,0.584085887,0.647973789,0.688744468,0.580860529,0.501871652,0.449927565,0.142139252,0.204904291,0.149350274,0.284087761,0.146535578,0.354933208,0.212849781,0.264285441,0.044253629,0.075931836,0.118480122,0.067158655,0.125555675,0.237771739,0.397058824,0.135869565,0.307692308,0.356971154,0.144761905,0,0,0,0,0.0625,0.07457899,0.025892857,    'ECG-1053b11d-4631-4686-a016-f281002f6a7a_qrs_manual.txt',13.06666667,5
0.308641975,0.244413293,0.265165563,0.278477885,0.185185185,0.341529235,0.405737705,0.345930233,0.307420841,0.287530058,0.323233831,0.211204339,0.155928571,0.238550942,0.310576321,0.304051753,0.274331551,0.315892974,0.250687831,0.488744772,0.663137364,0.527882003,0.510638298,0.272609923,0.195065045,0.236100533,0.271240129,0.328956272,0.304770633,0.271229328,0.348983683,0.266343458,0.326293716,0.401449084,0.554386678,0.493226525,0.344511605,0.281716404,0.227661544,0.224193847,0.247051655,0.26953732,0.241152442,0.242474719,0.43713517,0.193046656,0.1200769,0.122098304,0.043304925,0.216185587,0.328265114,0.133441285,0.169836957,0.22027972,0.197628458,0.416873449,0.305429864,0.149019608,0.464285714,0.037356322,0,0,0.416666667,0.615464995,0.414285714,    'ECG-107f1269-6ecd-45d8-8ac2-a1cfb1361617_qrs_manual.txt',8.966666667,3
0.327029157,0.232165181,0.398385762,0.298245614,0.2,0.410248147,0.314525353,0.331896552,0.25909133,0.358651911,0.417722222,0.302507682,0.234534161,0.250690102,0.246729316,0.318582541,0.274331551,0.421734104,0.254686129,0.473526012,0.624831914,0.55217161,0.188405797,0.398261855,0.127725659,0.120017771,0.323221186,0.380822806,0.399889732,0.410473544,0.417248452,0.361086157,0.411903753,0.446718835,0.543658191,0.512678197,0.488094221,0.468051461,0.327808873,0.209586938,0.314417272,0.35668277,0.238960339,0.150333938,0.357778429,0.176150608,0.196685356,0.095709417,0.383324114,0.201591182,0.368719401,0.374696381,0.57544757,0.415384615,0.392512077,0.349272349,0.308731809,0.410810811,0.086666667,0,0.02244898,0.260740741,0.325581395,0.312867956,0.680612245,    'ECG-10bd76b7-4f67-49e0-a276-c9ee423d2335_qrs_manual.txt',10.8,4
0.416666667,0.284685083,0.405537884,0.353070175,0.25,0.448610646,0.273531037,0.291666667,0.282559025,0.373111396,0.374656085,0.219126247,0.234534161,0.159692592,0.462192753,0.528370787,0.507646718,0.593499981,0.508882582,0.707514451,0.683344368,0.622881356,0.358433735,0.420624152,0.296323529,0.352878402,0.45209673,0.522780852,0.484415679,0.499027636,0.539139438,0.520123836,0.437932397,0.435884323,0.566957842,0.492598288,0.438554344,0.370317282,0.406686614,0.271720734,0.101886785,0.161665375,0.098203825,0.083226355,0.201233666,0.000107213,0.11226398,0.063859067,0.273298867,0.099008963,0.16321966,0.065251471,0.1393534,0,0.081521739,0,0.02532833,0.086363636,0,0,0,0.193939394,0.048780488,0.17334576,0.027255639,    'ECG-115cbf22-3271-4b82-9306-6876dc306f62_qrs_manual.txt',10.96666667,4
0.109922757,0.101473297,0.16602495,0.233610342,0.068100358,0.104338154,0.133906833,0.014830508,0.141940594,0.157183099,0.179141104,0.072187638,0.053408769,0.07711969,0.14992722,0.187033907,0.141338929,0.17786076,0.135078913,0.312368411,0.335540911,0.160307256,0.130530973,0.123648996,0.090073529,0.087252475,0.058454491,0.15508861,0.181414287,0.189690614,0.13995939,0.110198847,0.045199035,0.083585566,0.22182276,0.164980266,0.143817068,0.102096931,0.074339073,0.279864888,0.202977752,0.372892946,0.312891596,0.154217772,0.354547414,0.203109804,0.221268353,0.618593986,0.553187007,0.414948631,0.308680742,0.163852085,0.519848771,0.439349112,0.504658385,0.423076923,0.384615385,0.542857143,0.169565217,0.147727273,0.515719801,0.817777778,0.75,0.726896552,0.776785714,    'ECG-11dd7f6c-6eb3-45a5-b4f6-038090070f96_qrs_manual.txt',2.133333333,1
0.155555556,0.181442318,0.303107489,0.237829674,0.192488263,0.4586714,0.389597248,0.4375,0.282559025,0.344699778,0.28852381,0.181687094,0.203209393,0.179583878,0.238929288,0.280788177,0.241567256,0.237350355,0.191749951,0.662516674,0.248609985,0.276280984,0.153669725,0.197652514,0.188865546,0.211964513,0.19383106,0.284653499,0.287184057,0.263170114,0.269462775,0.297953852,0.421486544,0.392321524,0.40248268,0.309947586,0.261931658,0.215952335,0.244887837,0.164931467,0.329863283,0.334964036,0.280465691,0.362872029,0.617756645,0.084332088,0.439328007,0.561387358,0.580555262,0.431787775,0.349174673,0.246497673,0.077639752,0.292067308,0.420757363,0.416873449,0.401985112,0.335294118,0,0.077380952,0.331632653,0.503703704,0.5625,0.586206897,0.621428571,    'ECG-123d7321-d1a1-455e-b6f4-92f2799067b7_qrs_manual.txt',7.033333333,3
0.320813772,0.21290172,0.265165563,0.217273954,0.148387097,0.438743369,0.343481655,0.375,0.316039604,0.419826652,0.417722222,0.286888019,0.247238095,0.267471959,0.296996165,0.333567416,0.319166901,0.347005288,0.296996165,0.601156069,0.715084614,0.543949547,0.482758621,0.414925373,0.345283676,0.362736274,0.322553514,0.363687424,0.330236329,0.31077676,0.311521657,0.354813873,0.427635403,0.467206625,0.637892192,0.58335181,0.482549892,0.431109398,0.37843841,0.220170224,0.222068524,0.213492186,0.150819118,0.151199264,0.404352492,0.073726205,0.138654421,0.124929769,0.18951618,0.155701649,0.195458016,0.100249972,0.428194993,0.326373626,0.428194993,0.587412587,0.283216783,0.445045045,0.021311475,0,0.020786092,0.133333333,0.139534884,0.454310345,0.23015873,    'ECG-12441030-0e27-44ff-9b3f-f827e075974e_qrs_manual.txt',10.4,4
0.380116959,0.216645116,0.265165563,0.250829777,0.215686275,0.341529235,0.314525353,0.375,0.25909133,0.373111396,0.425322129,0.248787343,0.274418605,0.342315181,0.315200915,0.359610647,0.368983957,0.237350355,0.212799194,0.591574233,0.653304492,0.447600859,0.407643312,0.403745603,0.185809869,0.3385265,0.381186259,0.373464907,0.336877016,0.362124541,0.361434486,0.34817536,0.402852982,0.447331562,0.48367824,0.496489794,0.450608717,0.395789193,0.366148776,0.20353572,0.196408348,0.186011683,0.128004442,0.298470545,0.351598241,0.085576769,0.159062921,0.199749111,0.27155101,0.21498423,0.267581777,0.108400747,0.241545894,0.296703297,0.319693095,0.184615385,0.335972851,0.308108108,0,0,0.023384354,0.242424242,0.097560976,0.24668435,0.118367347,    'ECG-12b10af8-9e3c-4299-9c1c-df238796282c_qrs_manual.txt',9.433333333,4
0.40913006,0.205570902,0.270367572,0.278477885,0.157894737,0.392122746,0.328833173,0.390060241,0.290685379,0.324665944,0.299758454,0.155236576,0.181879699,0.307943121,0.292564745,0.354291179,0.390495868,0.385910005,0.354078857,0.430657901,0.653304492,0.55217161,0.274456522,0.245802239,0.26816609,0.289973196,0.421573418,0.370541638,0.327020215,0.370879804,0.348697078,0.372343508,0.361618331,0.461307349,0.544455539,0.431297141,0.337116833,0.283785903,0.304629268,0.209893061,0.186740943,0.186840963,0.135256471,0.09529378,0.351644281,0.315985516,0.167388862,0.128730848,0.356571789,0.25633296,0.142037475,0.098974654,0.440658049,0.415384615,0.287723785,0.246153846,0.213800905,0.266666667,0.09122807,0,0.02244898,0.338211382,0.472222222,0.377281947,0.408008658,    'ECG-12e6057c-eda5-40be-8975-65a8ec1460c9_qrs_manual.txt',9.9,4
0.481481481,0.240270104,0.398385762,0.353070175,0.25,0.500967628,0.531102627,0.4375,0.222772277,0.299499476,0.381546667,0.219126247,0.269714286,0.342315181,0.329379615,0.422114402,0.396027502,0.466763006,0.334210296,0.350032113,0.399131479,0.233398166,0.257978723,0.245802239,0.204591105,0.232546979,0.379992419,0.391045915,0.361651878,0.396458514,0.427732823,0.429968276,0.479170573,0.365762195,0.343191656,0.367862903,0.335879769,0.286372375,0.312334136,0.248552713,0.203917055,0.259098653,0.180297654,0.156248629,0.407213554,0.222410507,0.472006877,0.496975483,0.468982417,0.367316686,0.355507206,0.244393215,0.18115942,0.288461538,0.248447205,0.299145299,0.14033264,0.38974359,0.103174603,0.320987654,0.614674441,0.711111111,0.583333333,0.5830721,0.564935065,    'ECG-132b3ed5-0ee6-437f-9ae3-01afda027f50_qrs_manual.txt',8.1,3
0.274074074,0.194948698,0.240162358,0.269005848,0.142250531,0.108766234,0.405737705,0.185606061,0.215894156,0.264722191,0.329323308,0.199742856,0.171834101,0.390793178,0.385624555,0.387084825,0.436592819,0.397584525,0.359187109,0.225773546,0.597807094,0.489780658,0.443708609,0.310210312,0.300525797,0.277738915,0.345283684,0.395996835,0.344977131,0.391115602,0.342265831,0.260720534,0.181012554,0.297476809,0.463416504,0.435988392,0.355588092,0.336659355,0.274452654,0.037369043,0.084281184,0.123901826,0.077056481,0.092926491,0.037884947,0.404574634,0.122045767,0.122676326,0.108346786,0.185073296,0.146670502,0.119427534,0,0.028846154,0,0.02991453,0.091628959,0.108571429,0.234,0,0,0.050793651,0.108108108,0.17816092,0.233870968,    'ECG-1400883f-0720-42d6-b06e-5249ae5b3836_qrs_manual.txt',7.4,3
0.151515152,0.125966851,0.173977406,0.153055051,0.095785441,0.217137672,0.247703117,0.304775281,0.067326733,0.15325063,0.179141104,0.107246674,0.101142857,0.19703657,0.231281456,0.237537585,0.222339384,0.208569762,0.195176572,0.496541268,0.311808235,0.267312349,0.2421875,0.210728536,0.185809869,0.192569497,0.184149454,0.233378413,0.199781954,0.211267752,0.200831228,0.137983269,0.340368144,0.248494232,0.181972113,0.218083313,0.207823576,0.190575352,0.176838548,0.132173448,0.143701366,0.18860879,0.133252987,0.208604023,0.298472488,0.13975861,0.549977634,0.255446949,0.240382315,0.19970847,0.145734752,0.073448097,0.374812594,0.358090186,0.487256372,0.222811671,0.50132626,0.567816092,0,0.303333333,0.333701048,0.733333333,0.64516129,0.552913199,0.258928571,    'ECG-141eb777-9aa8-4a04-bd58-72e5a2c2cc59_qrs_manual.txt',5,2
0.217391304,0.153522099,0.203347824,0.229446164,0.113772455,0.32581786,0.286885246,0.375,0.170957096,0.134344529,0.195890985,0.123055113,0.116256158,0.284975615,0.296996165,0.349028001,0.338450923,0.326047688,0.266925818,0.591574233,0.371407114,0.29485508,0.230769231,0.2766061,0.238461538,0.211964513,0.268669047,0.304085022,0.290796915,0.299532234,0.262142104,0.261621355,0.433921338,0.407041468,0.26893805,0.227240189,0.266482987,0.234627981,0.200819267,0.087972851,0.122803831,0.111098473,0.122169092,0.099053689,0.336864374,0.054227101,0.394566017,0.290978828,0.235760937,0.120768196,0.131626403,0.10359997,0.237771739,0.292067308,0.203804348,0.228438228,0.267990074,0.447058824,0,0.228070175,0.477040816,0.549494949,0.242424242,0.586206897,0.428571429,    'ECG-142555fc-8a85-4d7a-9e2a-ebc32787c90c_qrs_manual.txt',7.266666667,3
0.227113906,0.162473167,0.245033113,0.259793319,0.139240506,0.295953263,0.456674473,0.525,0.290685379,0.293465712,0.311323529,0.178223336,0.155928571,0.258993625,0.315200915,0.349028001,0.396027502,0.374490666,0.301474727,0.512524085,0.683344368,0.595287309,0.489583333,0.337489025,0.313419118,0.29835721,0.264513351,0.31962369,0.298343491,0.366129833,0.312750224,0.307518346,0.447120063,0.543531265,0.527582765,0.44885334,0.341596692,0.320896886,0.285901965,0.131972042,0.107178001,0.177853748,0.104735929,0.123095891,0.279666186,0.289133644,0.268063617,0.099147883,0.115571206,0.147609017,0.095178825,0.048432492,0.203804348,0.188811189,0.203804348,0.030769231,0,0.140740741,0,0,0,0.024806202,0.194444444,0.17816092,0.129464286,    'ECG-144e508c-6380-48a0-a6ae-68369b31a279_qrs_manual.txt',10.3,4
0.40913006,0.279926335,0.458940397,0.383825417,0.268817204,0.366148399,0.732581967,0.506578947,0.352310231,0.41167002,0.482321429,0.302507682,0.342955665,0.396508063,0.508882582,0.63173584,0.657056498,0.523049133,0.079074593,0.520716957,0.289488218,0.703692494,0.469387755,0.530232051,0.417647059,0.463527985,0.472298206,0.510837246,0.558468184,0.591002711,0.529326738,0.466822682,0.550377614,0.49719027,0.665822368,0.590927249,0.554847509,0.486212835,0.513620044,0.11054429,0.07600326,0.101079042,0.036050419,0.125814654,0.341451865,0.166960706,0.372489218,0.071450226,0.277874371,0.100114187,0.150356625,0.055406647,0.05574136,0.05065666,0.101112235,0.024475524,0.129807692,0.09047619,0.24,0.142076503,0,0.155555556,0.086956522,0.174017642,0.098639456,    'ECG-146d7df5-c74e-4c3f-9bd7-d7c515b08418_qrs_manual.txt',12.3,5
0.291005291,0.205570902,0.265165563,0.269005848,0.167785235,0.261288998,0.144262295,0.207474227,0.202496771,0.228084927,0.28852381,0.192369034,0.192329818,0.29401283,0.334210296,0.375915975,0.390495868,0.391714836,0.413654618,0.458786582,0.509470151,0.421407012,0.338235294,0.16708126,0.151279346,0.145929102,0.332516978,0.363814224,0.348362259,0.387025112,0.374784487,0.367608179,0.179088341,0.277543454,0.399005045,0.353903889,0.293202877,0.242556885,0.239935784,0.147443933,0.176993958,0.184957592,0.144164122,0.125343193,0.124913023,0.08889643,0.252500838,0.192068383,0.176710276,0.374723193,0.460575057,0.284455073,0.191815857,0.356043956,0.191815857,0.02991453,0.086538462,0.2,0.076470588,0,0.049886621,0.246153846,0.470588235,0.620689655,0.586904762,    'ECG-1519e4b2-e93a-4231-96c6-f736fcd40859_qrs_manual.txt',7.5,3
0.394402036,0.366449021,0.518959151,0.324627358,0.264,0.438743369,0.592505855,0.4375,0.324832483,0.395814137,0.425322129,0.380506823,0.393333333,0.432316525,0.591685563,0.492951992,0.448811288,0.569101419,0.36957976,0.651802918,0.772175156,0.651890482,0.58778626,0.495270128,0.539684256,0.421531439,0.438956672,0.652558183,0.583954592,0.468251455,0.522557612,0.475748508,0.539310575,0.533929907,0.614339818,0.60209703,0.539263552,0.608769971,0.519495019,0.093467126,0.111248126,0.256381685,0.124372576,0.108547147,0.306674098,0.103662353,0.153548241,0.065668759,0.130670562,0.071542587,0.105237423,0.14705104,0.171624714,0.044189853,0.098814229,0.193293886,0.025961538,0.301587302,0.04,0,0,0,0.044444444,0,0.120431894,    'ECG-16046e9e-1cf9-4714-be81-ee0c99a0d353_qrs_manual.txt',13.13333333,5
0.054466231,0.096897578,0.115146336,0.190614573,0.095785441,0.366148399,0.389597248,0.318181818,0.189557417,0.204174688,0.191625,0.120341013,0.087004608,0.060002143,0.096688855,0.116681072,0.189911837,0.228934299,0.271089404,0.610913719,0.502180809,0.160307256,0.185096154,0.139215427,0.105931169,0.078559642,0.073625342,0.130837738,0.147868941,0.260472135,0.221190447,0.301232874,0.428773248,0.344837949,0.273110999,0.163065263,0.154432982,0.128015196,0.092521717,0.212409114,0.335083444,0.363605353,0.204232167,0.156306482,0.438189007,0.084575823,0.270325635,0.659265396,0.449740426,0.323805797,0.309988159,0.210473987,0.519848771,0.639053254,0.752508361,0.451612903,0.484615385,0.149019608,0.127868852,0,0.460491889,0.675555556,0.714285714,0.791826309,0.776785714,    'ECG-1691e2cf-a971-47f5-8bbf-e4e909c4dcee_qrs_manual.txt',4.866666667,2
0.082621083,0.099172797,0.178024217,0.162819329,0.090909091,0.122402375,0.12375442,0.154411765,0.153264107,0.253848673,0.335505051,0.158391622,0.140987013,0.114427164,0.178354978,0.129144125,0.249519755,0.142402273,0.062401551,0.187540141,0.289488218,0.367413887,0.253968254,0.19446247,0.122737557,0.112670761,0.104322481,0.190533377,0.138943312,0.224235256,0.154662282,0.064543854,0.063129339,0.117428302,0.335192764,0.326036263,0.260215294,0.156243352,0.162864129,0.191286419,0.196536119,0.403592514,0.144702926,0.245371889,0.567086805,0.499114237,0.451016594,0.201360568,0.436122719,0.431242618,0.359238732,0.222495174,0.304347826,0.407967033,0.543478261,0.519893899,0.384615385,0.797530864,0.288888889,0.337037037,0.240524781,0.518918919,0.59375,0.801724138,0.652116402,    'ECG-169763cd-f4bd-4c29-b2a4-b2e7916f5792_qrs_manual.txt',3.4,1
0.40913006,0.266092766,0.398385762,0.424201529,0.228070175,0.38330721,0.405737705,0.318181818,0.244163866,0.331228752,0.440911681,0.286888019,0.299078341,0.189955764,0.178354978,0.299305516,0.374271801,0.286647399,0.246729316,0.473526012,0.226215823,0.267312349,0.309659091,0.242131312,0.335913313,0.258211535,0.289197798,0.272753225,0.348966125,0.475818681,0.331130909,0.381766513,0.41064874,0.296124167,0.343363154,0.478066073,0.450071719,0.455980638,0.382822225,0.468737922,0.54312981,0.464319342,0.304814739,0.287507289,0.426528026,0.092887266,0.523884746,0.502197784,0.365921041,0.465257047,0.264734713,0.261488867,0.679347826,0.484615385,0.543478261,0.303747535,0.409090909,0.633333333,0.043333333,0.291666667,0.507774538,0.446511628,0.487804878,0.443229605,0.489087302,    'ECG-175cd9a8-613f-482c-9024-49d249801fc5_qrs_manual.txt',7.266666667,3
0.380116959,0.270631906,0.384411615,0.33574394,0.299435028,0.438743369,0.492896175,0.390060241,0.282559025,0.337905695,0.34178117,0.219126247,0.247238095,0.280529499,0.22008547,0.343820225,0.413008332,0.427944987,0.449603175,0.385356455,0.555695248,0.50467999,0.503521127,0.332809636,0.313419118,0.324672352,0.351510529,0.438387517,0.401030196,0.461422826,0.516541049,0.482310142,0.433902565,0.367899206,0.506361935,0.517011362,0.405243304,0.356925713,0.378703692,0.239146303,0.487449854,0.353567712,0.173263092,0.200492995,0.236024617,0.169510654,0.278922864,0.129440463,0.121384483,0.181664192,0.192630504,0.107336849,0.248447205,0.280665281,0.483091787,0.24852071,0.233653846,0.241269841,0.127868852,0,0,0.139130435,0.41025641,0.635601118,0.374007937,    'ECG-17721c9f-0434-46a6-8e85-667eca896bf0_qrs_manual.txt',9.633333333,4
0.448028674,0.279926335,0.364238411,0.313840156,0.264,0.366148399,0.300546448,0.254032258,0.298971074,0.395814137,0.433050847,0.276898208,0.304250871,0.368609952,0.344033579,0.323526005,0.368983957,0.320944023,0.319875776,0.481074026,0.563841474,0.512297693,0.563432836,0.502064147,0.350052521,0.294141914,0.477375295,0.46130656,0.411099877,0.388213957,0.430885477,0.394541726,0.264460003,0.372272093,0.519440005,0.583872041,0.532056878,0.43829471,0.420157757,0.182978272,0.235999354,0.279998984,0.17957594,0.344849363,0.323508103,0.175910207,0.182286611,0.151580267,0.104438992,0.090316254,0.182541773,0.159210391,0.135869565,0.273279352,0.440658049,0.508547009,0.392931393,0.3,0.072222222,0,0.068721366,0.021768707,0,0.347413793,0.29981203,    'ECG-17a9aaa6-feba-4ede-8533-32243612c15c_qrs_manual.txt',10.73333333,4
0.185185185,0.147738899,0.10522443,0.122807018,0.074681239,0.38330721,0.358483113,0.390060241,0.229774329,0.324665944,0.241700224,0.155236576,0.12692437,0.211614701,0.231281456,0.165633475,0.196888673,0.149251519,0.181657848,0.662516674,0.563841474,0.434322034,0.181818182,0.164179104,0.127725659,0.125021338,0.200308623,0.276734132,0.130318931,0.170786666,0.138259216,0.295172729,0.471326697,0.432297458,0.43527051,0.365079758,0.243650179,0.195917281,0.152604463,0.128865847,0.200685425,0.223237836,0.148738323,0.188794941,0.561389096,0.096593386,0.296983644,0.178287447,0.501962011,0.447563064,0.385046771,0.208555741,0.412293853,0.401985112,0.25083612,0.307692308,0.439349112,0.298039216,0,0.037356322,0.195208518,0.589473684,0.90625,0.810939358,0.728835979,    'ECG-17cd4663-609c-4af9-bcf7-7754aca41f1e_qrs_manual.txt',8.2,3
0.274074074,0.188104861,0.332565505,0.25528106,0.196217494,0.401101533,0.456674473,0.390060241,0.333804809,0.380540121,0.465321637,0.272024146,0.251599147,0.204254868,0.288179728,0.323526005,0.261742314,0.250277901,0.146905912,0.512524085,0.634156267,0.622881356,0.547794118,0.3875,0.313419118,0.289973196,0.282522108,0.347668078,0.376087654,0.315856404,0.306931333,0.363672849,0.453123533,0.431495591,0.636595443,0.584602261,0.487956203,0.379903471,0.356444689,0.217934497,0.194656234,0.280879443,0.270199916,0.263213012,0.486371452,0.133286891,0.177495543,0.078478759,0.108802104,0.26191528,0.19031707,0.153078654,0.373641304,0.397058824,0.217391304,0.456876457,0.534965035,0.342342342,0.085245902,0,0,0.066666667,0.238095238,0.450090744,0.489087302,    'ECG-18239f9b-9f9b-4a07-8b63-f27c189aa6e4_qrs_manual.txt',10,4
0.339728217,0.252887996,0.314639989,0.365079365,0.228070175,0.695886996,0.286885246,0.318181818,0.266766299,0.318214371,0.433050847,0.199742856,0.230421377,0.390793178,0.43732445,0.459616656,0.474153298,0.415593799,0.391098662,0.582163501,0.60666138,0.543949547,0.489583333,0.37700387,0.35976258,0.388459158,0.382352402,0.483507073,0.418343226,0.456110431,0.422250786,0.491947058,0.372064541,0.398675866,0.520449589,0.516279659,0.471203473,0.380177924,0.368637645,0.081846239,0.095790127,0.115560215,0.112778216,0.173657137,0.273355897,0.123878772,0.193942063,0.098911064,0.097945588,0.204962872,0.067415793,0.045646912,0.060386473,0.129807692,0.235017626,0.165680473,0.168399168,0.180952381,0,0.038011696,0,0.118518519,0.119047619,0.112522686,0.086309524,    'ECG-190cf0fb-4e57-424e-a494-6cf1d38e913c_qrs_manual.txt',10.5,4
0.339728217,0.198440929,0.182119205,0.221279004,0.139240506,0.38330721,0.636451302,0.543918919,0.316039604,0.243307171,0.329323308,0.302507682,0.199533528,0.084755214,0.175081999,0.19816597,0.222339384,0.163307364,0.162281011,0.582163501,0.704306773,0.23747439,0.178571429,0.152833119,0.125220904,0.112670761,0.202376968,0.242828533,0.180679229,0.204263116,0.223832776,0.272734777,0.41170181,0.538909554,0.473863169,0.303018604,0.257961947,0.213751317,0.166291436,0.582088406,0.396942574,0.319667494,0.296848967,0.308518602,0.524595679,0.236144021,0.169194012,0.505217346,0.477112146,0.497688487,0.683316634,0.370454894,0.427018634,0.553846154,0.73757764,0.5,0.644562334,0.558823529,0.173333333,0.034391534,0.334346505,0.711111111,0.84375,0.368608799,0.537037037,    'ECG-194418b1-94dc-474b-8ae0-2793d3c59c8a_qrs_manual.txt',7.9,3
0.207907294,0.153522099,0.297461369,0.221279004,0.167785235,0.303232759,0.405737705,0.318181818,0.195971321,0.204174688,0.175081301,0.149047833,0.124210526,0.072131148,0.115326352,0.333567416,0.207595061,0.263583815,0.156049693,0.410663446,0.435014728,0.097608959,0.119565217,0.116163862,0.099023626,0.103159279,0.08221962,0.210018603,0.348199652,0.298012488,0.276148589,0.281104072,0.391244469,0.313892787,0.288336732,0.248588915,0.163457732,0.162520759,0.131209081,0.302634101,0.443236651,0.236048118,0.232322145,0.225593307,0.47037361,0.166568377,0.272090219,0.722973352,0.680687942,0.532859549,0.498873113,0.215276536,0.362318841,0.259615385,0.255754476,0.750582751,0.602977667,0.782352941,0.13,0.081761006,0.645408163,0.937373737,1,0.878078818,0.538571429,    'ECG-19f4f278-2280-4219-9bb6-f6c4a0fdef30_qrs_manual.txt',5.333333333,2
0.366255144,0.284685083,0.377584551,0.319193506,0.25,0.274819244,0.456674473,0.196428571,0.189557417,0.287530058,0.299758454,0.235690236,0.256025779,0.484517304,0.501949318,0.614659528,0.55828877,0.610311518,0.537558939,0.367318493,0.563841474,0.468235581,0.456375839,0.382219338,0.345283676,0.388459158,0.455849228,0.50476578,0.501643338,0.507179867,0.536539017,0.443243559,0.229511406,0.282397985,0.39850795,0.412246096,0.381147434,0.389944802,0.387507376,0.044947499,0.099059215,0.057784229,0.042524266,0.065368122,0.052278762,0.22121182,0.157384826,0.131122515,0.089319085,0.088265183,0.162349312,0.064554254,0,0.02532833,0,0,0,0,0.196226415,0,0.024943311,0.02601626,0,0.028130672,0.027992278,    'ECG-19f57590-e6e2-4819-a126-992b9fabffe4_qrs_manual.txt',8.5,3
0.274074074,0.191503658,0.245033113,0.288220551,0.142250531,0.366148399,0.286885246,0.304775281,0.202496771,0.228084927,0.246621622,0.137134503,0.155928571,0.200628283,0.334210296,0.370422108,0.407282619,0.341682723,0.315200915,0.610913719,0.410760309,0.427819988,0.390625,0.301526077,0.300525797,0.273748997,0.293490147,0.351546721,0.33574163,0.367739936,0.324567007,0.316231387,0.379779147,0.286068986,0.353452047,0.353205572,0.287825329,0.2827494,0.261572589,0.284425805,0.173106854,0.142398145,0.115217098,0.116580284,0.344267469,0.081997396,0.389318267,0.165446878,0.103769345,0.127044803,0.069440175,0.081726323,0.164690382,0.183257919,0.095907928,0.030769231,0.094405594,0.175925926,0,0.125,0.052206929,0.027350427,0.147058824,0.097178683,0.129464286,    'ECG-1a04c04c-c602-479e-b33d-f02c835f9b1c_qrs_manual.txt',7.633333333,3
0.279642058,0.289520585,0.43530932,0.201754386,0.145299145,0.235477454,0.247703117,0.304775281,0.222772277,0.305633803,0.311323529,0.231455833,0.210714286,0.137820978,0.15297503,0.318582541,0.200424877,0.112964492,0.132185073,0.417228041,0.563841474,0.512297693,0.363636364,0.17595123,0.140580461,0.145929102,0.23613884,0.3724008,0.440560344,0.252305883,0.222904249,0.174624219,0.33068095,0.373766504,0.469033756,0.451872743,0.375987356,0.356137729,0.271877764,0.368888241,0.522947433,0.427893461,0.276080005,0.392929545,0.416862512,0.149008872,0.188685233,0.09702402,0.196491494,0.337403427,0.413445125,0.358767972,0.652173913,0.42760181,0.28604119,0.753846154,0.680371353,0.694623656,0.114035088,0,0.023384354,0.253968254,0.447368421,0.534482759,0.668202765,    'ECG-1a449558-299f-490a-863d-1b4c16e7f45a_qrs_manual.txt',8,3
0.333333333,0.266092766,0.338715135,0.308565531,0.228070175,0.38330721,0.176609768,0.230263158,0.25909133,0.287530058,0.34178117,0.203508772,0.269714286,0.402293071,0.359187109,0.410175483,0.528786721,0.569101419,0.515908289,0.496541268,0.624831914,0.520030817,0.489583333,0.414925373,0.37477445,0.399204161,0.394618984,0.473099968,0.428344869,0.486985083,0.485835633,0.464673044,0.261706396,0.327222602,0.54183119,0.465428846,0.420229919,0.381062596,0.408650449,0.101443427,0.228905095,0.230611812,0.060398232,0.077371452,0.155648566,0.095396928,0.099932773,0.125897838,0.085225318,0.116583043,0.072140939,0.084972768,0,0.053254438,0.028604119,0,0,0,0.024074074,0,0,0,0,0.028130672,0,    'ECG-1a623918-d002-48ea-b697-3b07e287e492_qrs_manual.txt',9.4,4
0.359477124,0.275242528,0.332565505,0.25528106,0.215686275,0.410248147,0.389597248,0.421296296,0.352310231,0.403667287,0.34178117,0.231455833,0.238706986,0.303248664,0.402242378,0.453183521,0.348407347,0.391714836,0.380214101,0.641291308,0.772175156,0.714612918,0.476027397,0.420624152,0.379901961,0.357777645,0.378126327,0.430528419,0.402409054,0.373817818,0.408990505,0.400674623,0.510819472,0.531684409,0.670344979,0.582046615,0.436339844,0.405721802,0.371266942,0.165808357,0.182342042,0.175696476,0.141949229,0.2062308,0.369029509,0.083588622,0.119482182,0.061555115,0.214453398,0.095236646,0.114040218,0.090299945,0.241545894,0.336798337,0.381903643,0.4,0.375,0.25982906,0.0203125,0,0,0.133333333,0.243902439,0.411140584,0.46031746,    'ECG-1aab7fae-af31-4bbb-9e48-28ced610bb86_qrs_manual.txt',11.73333333,5
0.339728217,0.198440929,0.254966887,0.25528106,0.167785235,0.318161894,0.358483113,0.405487805,0.23690369,0.337905695,0.381546667,0.211204339,0.251599147,0.041554988,0.096688855,0.057353681,0.07523511,0.052023121,0.104545945,0.488744772,0.615668326,0.50467999,0.122270742,0.085820896,0.103609626,0.105507426,0.145938779,0.230733281,0.204090098,0.164387812,0.220404248,0.238752303,0.332321658,0.374383868,0.477075912,0.427931256,0.396600295,0.33774236,0.305472326,0.697785262,0.71741164,0.82333025,0.640207309,0.685617218,0.698658467,0.20807038,0.173434331,0.112062701,0.519245408,0.564357885,0.506839083,0.475287467,0.919732441,0.89010989,0.698757764,0.877492877,0.70467033,0.910416667,0.255357143,0.077380952,0.023384354,0.312195122,0.435897436,0.64137931,0.809151786,    'ECG-1ae480cf-693f-412b-853b-58e1b28ee5f5_qrs_manual.txt',7.633333333,3
0.274074074,0.144900519,0.13959081,0.146730463,0.133333333,0.229270861,0.104035309,0.16460396,0.159065087,0.173451669,0.241700224,0.070050349,0.111103896,0.125920646,0.137997593,0.148627507,0.169715733,0.200683132,0.235086627,0.430657901,0.289488218,0.198622881,0.2421875,0.128747567,0.140580461,0.148648049,0.19153295,0.184010894,0.160574461,0.169754288,0.207724838,0.246176266,0.131254215,0.158879319,0.221126352,0.230164181,0.167986507,0.136865693,0.155750548,0.373782872,0.350451603,0.352463736,0.214535058,0.291773238,0.352945089,0.130211327,0.481342335,0.427973015,0.366019595,0.412179284,0.183648962,0.158749494,0.698757764,0.5,0.644122383,0.615384615,0.322281167,0.537373737,0.053061224,0.329710145,0.265843179,0.581818182,0.517241379,0.475095785,0.398351648,    'ECG-1b308c2a-fd10-4299-b330-c35ab5ca8be8_qrs_manual.txt',3.733333333,2
0.222222222,0.125966851,0.182119205,0.25528106,0.098265896,0.303232759,0.247703117,0.266304348,0.222772277,0.243307171,0.277605634,0.196029981,0.165350318,0.057633197,0.146905912,0.113628126,0.179679144,0.208569762,0.202126338,0.582163501,0.502180809,0.408841044,0.37962963,0.249511604,0.195065045,0.15415976,0.16188925,0.207570892,0.183032682,0.231381609,0.193753656,0.243560535,0.365162135,0.265962452,0.381503362,0.387025282,0.338413228,0.275217152,0.207923556,0.454032529,0.290915986,0.43608042,0.301276308,0.185530553,0.403066823,0.103064223,0.300212565,0.161756005,0.125315293,0.190364291,0.251974193,0.214361124,0.885668277,0.70467033,0.815217391,0.594164456,0.644562334,0.422222222,0,0,0.051020408,0.053333333,0.388888889,0.647857889,0.75,    'ECG-1bb81a9a-f4dc-4af0-a660-af780ca3d0c2_qrs_manual.txt',6.2,3
0.252525253,0.178176796,0.291893126,0.269005848,0.157894737,0.303232759,0.085060315,0.144417476,0.209136703,0.344699778,0.425322129,0.227284629,0.82302521,0.176191206,0.205650394,0.323526005,0.2261124,0.263583815,0.205650394,0.350032113,0.539793814,0.38470116,0.489583333,0.23849823,0.264314768,0.192569497,0.218628919,0.292118945,0.295338449,0.28286573,0.307909318,0.266434053,0.139641075,0.258046164,0.405058264,0.483659223,0.371904805,0.329453209,0.315854918,0.279467451,0.254749338,0.2767211,0.246616583,0.156941383,0.440006798,0.185151987,0.125741286,0.251257315,0.147124898,0.331426997,0.239597321,0.325536738,0.524737631,0.421875,0.407608696,0.4375,0.259615385,0.409803922,0.078,0.04248366,0.124716553,0.024242424,0.243243243,0.415708812,0.313852814,    'ECG-1c0059df-ac90-4bbe-b43e-efd7cbcb3913_qrs_manual.txt',6.366666667,3
0.237084218,0.168633042,0.265165563,0.194282001,0.154684096,0.438743369,0.247703117,0.345930233,0.23690369,0.324665944,0.348153846,0.248787343,0.539428571,0.284975615,0.319875776,0.375915975,0.333552575,0.368874089,0.319875776,0.641291308,0.502180809,0.454381536,0.309659091,0.26474579,0.260504202,0.070138459,0.276786456,0.329313437,0.322964907,0.291605617,0.305258962,0.342964787,0.373816449,0.320388409,0.433508616,0.37840894,0.363201513,0.35125125,0.263668308,0.129823799,0.093004708,0.157467995,0.086370093,0.111201762,0.362150438,0.016023744,0.238639221,0.210586751,0.345010677,0.367164811,0.264516046,0.380710999,0.339673913,0.122171946,0.395256917,0.302884615,0.409090909,0.479279279,0,0.12037037,0.366015972,0.382905983,0.567567568,0.664492078,0.621428571,    'ECG-1c253560-bf10-44b8-995e-a460b5726641_qrs_manual.txt',7.5,3
0.237084218,0.174953959,0.216721854,0.242105263,0.113772455,0.38330721,0.273531037,0.291666667,0.222772277,0.259242958,0.329323308,0.164827079,0.210714286,0.147026391,0.175081999,0.205755249,0.196888673,0.163307364,0.156049693,0.610913719,0.58910162,0.402684564,0.195121951,0.128747567,0.099023626,0.076429382,0.193608338,0.247708054,0.212805851,0.250595318,0.175814847,0.266246073,0.361089106,0.346830925,0.452504294,0.361735248,0.303922867,0.166514043,0.185283633,0.375527183,0.37802682,0.424956297,0.33722195,0.317350097,0.659115307,0.088663068,0.125404646,0.14139601,0.478378299,0.611877365,0.544251736,0.456147841,0.659937888,0.657692308,0.562218891,0.574358974,0.815934066,0.652525253,0,0.039393939,0.047763786,0.533333333,0.794117647,0.878078818,0.920634921,    'ECG-1c312d74-9f63-4b8c-9829-385175e5e057_qrs_manual.txt',6.333333333,3
0.456187895,0.279926335,0.398385762,0.365079365,0.268817204,0.438743369,0.405737705,0.390060241,0.352310231,0.380540121,0.527601246,0.302507682,0.602040816,0.2345863,0.523028302,0.492951992,0.514603044,0.453519211,0.431298082,0.684574408,0.772175156,0.692965352,0.64,0.382219338,0.525255754,0.538257135,0.41955758,0.55541892,0.493253555,0.547524841,0.51111323,0.486032136,0.494700584,0.520139353,0.682229085,0.634386147,0.571754883,0.550379491,0.561373808,0.321354718,0.092015259,0.173774381,0.097338247,0.147511598,0.232763491,0.062971757,0.105162393,0.09423543,0.044602628,0.18429835,0.035949015,0.082586959,0.230566535,0,0.081521739,0,0.129807692,0.06031746,0.1015625,0,0,0,0.063829787,0,0.023015873,    'ECG-1c5a400d-5b33-49dd-9382-0b6cd02a6b6d_qrs_manual.txt',12,5
0.401709402,0.236187845,0.286401161,0.217273954,0.181609195,0.410248147,0.389597248,0.390060241,0.290685379,0.388106416,0.482321429,0.33625731,0.674285714,0.120124364,0.118077601,0.162173892,0.163217856,0.13566814,0.165438398,0.563837339,0.653304492,0.595287309,0.58778626,0.502064147,0.406519296,0.388459158,0.289228434,0.276393478,0.287119912,0.30177989,0.306446039,0.305991987,0.467427324,0.491234299,0.578328348,0.595519561,0.567704525,0.537651446,0.505947803,0.464020234,0.553253154,0.495809895,0.254961775,0.366024346,0.568844035,0.175653151,0.21433735,0.091669131,0.110506117,0.12303412,0.20514182,0.18316249,0.631136045,0.669975186,0.373641304,0.471153846,0.421875,0.434285714,0.062903226,0,0,0.065306122,0.130434783,0.213793103,0.369897959,    'ECG-1c5d65ee-3dfa-4a2d-a553-4af4fcb9972e_qrs_manual.txt',10.43333333,4
0.448028674,0.348359654,0.501065361,0.453501009,0.351681957,0.5234375,0.571461556,0.563356164,0.391734826,0.48163206,0.556858974,0.33625731,0.348869565,0.505557414,0.455858374,0.528370787,0.424661843,0.508456433,0.402242378,0.719332049,0.835212629,0.692965352,0.707627119,0.625552239,0.296323529,0.516703469,0.513144671,0.643302345,0.571286224,0.579987405,0.631952205,0.583414691,0.655862516,0.697236965,0.739256415,0.721912832,0.660551552,0.509866306,0.559328471,0.087738616,0.128133788,0.233245148,0.231656249,0.235310165,0.336355844,0.105384101,0.127710415,0.086892463,0.065404748,0.085456834,0.257553078,0.089376358,0,0.198854337,0.176946411,0.205128205,0.161538462,0.197037037,0.075362319,0,0,0,0,0.124298316,0.047077922,    'ECG-1c6f21fc-49d7-4f09-8b71-6daf55cb02de_qrs_manual.txt',15.56666667,5
0.352798054,0.228200817,0.326504359,0.347205222,0.211678832,0.32581786,0.154826958,0.21875,0.298971074,0.373111396,0.440911681,0.302507682,0.320285714,0.242556039,0.334210296,0.459616656,0.222339384,0.487230688,0.431298082,0.554913295,0.624831914,0.672070744,0.622047244,0.118637581,0.231412362,0.215309591,0.366656349,0.405871634,0.425048197,0.412171869,0.440172533,0.425961443,0.274098206,0.364975362,0.601225924,0.622613505,0.425239044,0.467337444,0.413577135,0.212286227,0.185064725,0.144192737,0.272964663,0.102258536,0.170253716,0.057071388,0.08583063,0.034200333,0.043323864,0.574406307,0.259250401,0.330761969,0.392512077,0.346153846,0.343249428,0.448717949,0.109311741,0.126666667,0,0.077380952,0.021178283,0,0.5,0.391084945,0.363899614,    'ECG-1cd0214d-0dec-4d3e-9cda-156be349745f_qrs_manual.txt',10.26666667,4
0.352798054,0.248618785,0.326504359,0.308565531,0.185185185,0.468931376,0.439260193,0.4375,0.352310231,0.419826652,0.587854785,0.380506823,0.367244898,0.477689719,0.227513228,0.205755249,0.455031599,0.501294372,0.391098662,0.582163501,0.796626054,0.725731895,0.717948718,0.652312209,0.618697479,0.568519352,0.437407769,0.456621527,0.430695835,0.451235741,0.427387516,0.426014397,0.451997601,0.553927486,0.704889203,0.694540398,0.693860888,0.658569519,0.609444908,0.039154521,0.260789991,0.32400834,0.110301383,0.070194471,0.305876031,0.189398363,0.118883481,0.06812002,0.026002241,0.093874961,0.065273177,0.03694633,0,0.133136095,0.08813161,0.085020243,0.027327935,0.162393162,0.125806452,0,0,0,0,0,0.022515528,    'ECG-1d222837-019b-4a02-bb8e-cb8a96d4761b_qrs_manual.txt',12.83333333,5
0.247311828,0.194948698,0.194701987,0.190614573,0.164444444,0.229270861,0.286885246,0.331896552,0.25909133,0.293465712,0.361197917,0.219126247,0.613356282,0.226775956,0.235086627,0.299305516,0.309826203,0.281942887,0.275295914,0.43752779,0.615668326,0.560523155,0.510638298,0.403745603,0.296323529,0.262033916,0.254066553,0.290629395,0.272315059,0.278568482,0.284660712,0.244244168,0.219029883,0.370672445,0.523885203,0.48282424,0.434702244,0.363796903,0.278330446,0.14684321,0.280986243,0.193237709,0.107023477,0.206456787,0.301035123,0.255331014,0.208575591,0.08351505,0.10294232,0.133011013,0.176070441,0.248201248,0.253623188,0.129807692,0.50951087,0.277915633,0.486778846,0.115151515,0,0,0,0.048484848,0.073170732,0.404473439,0.550223214,    'ECG-1d5fbf83-639f-4dce-9d16-db439829f06a_qrs_manual.txt',8.733333333,3
0.198653199,0.178176796,0.190457193,0.213319924,0.171171171,0.341529235,0.389597248,0.405487805,0.307420841,0.337905695,0.335505051,0.188758934,0.210714286,0.189955764,0.271089404,0.258643042,0.282936315,0.281942887,0.306001188,0.582163501,0.693728522,0.577627119,0.45,0.37700387,0.313419118,0.343253852,0.18378493,0.299226142,0.244198938,0.270311114,0.264372175,0.323847388,0.428847783,0.473946722,0.610371439,0.49071599,0.416213889,0.331051701,0.342042991,0.204041836,0.216600974,0.229892583,0.157756655,0.222793456,0.331908275,0.137126727,0.175901355,0.135687627,0.206937185,0.090304692,0.105458057,0.083765426,0.427018634,0.551682692,0.455820477,0.416873449,0.234491315,0.140740741,0,0,0.021178283,0.145454545,0.05,0.274876847,0.207142857,    'ECG-1d7ce063-27e9-41a7-b847-9576693d64e6_qrs_manual.txt',9.5,4
0.247311828,0.184751381,0.308833131,0.242105263,0.148387097,0.241780273,0.260473588,0.318181818,0.183252224,0.299499476,0.381546667,0.219126247,0.230421377,0.332215599,0.334210296,0.40430607,0.348407347,0.352384779,0.334210296,0.496541268,0.460695876,0.454381536,0.45,0.398261855,0.354878478,0.333854438,0.302275159,0.349189663,0.356049719,0.310053737,0.306482325,0.323000378,0.245439467,0.25474161,0.407574111,0.451008707,0.44050317,0.375013611,0.339104906,0.073410518,0.102971112,0.147461282,0.13038074,0.153832453,0.176772945,0.090935527,0.272419089,0.132221648,0.154331631,0.153461929,0.131428394,0.110623438,0.098814229,0.244343891,0.186335404,0.293706294,0.227163462,0.23963964,0.104,0.12745098,0.074829932,0.126984127,0.097560976,0.253176044,0.414285714,    'ECG-1e318ae9-04fd-41a7-b611-1d0680dfcef2_qrs_manual.txt',7.2,3
0.207907294,0.162473167,0.203347824,0.28331467,0.161147903,0.217137672,0.075838823,0.115566038,0.170957096,0.169301523,0.167108434,0.094896332,0.152866016,0.179583878,0.212799194,0.225343321,0.323911383,0.296198984,0.288179728,0.367318493,0.366081118,0.206066012,0.201970443,0.17595123,0.188865546,0.168385589,0.193388719,0.25454099,0.223205567,0.304908654,0.27909827,0.260967796,0.099448968,0.136393065,0.24108433,0.213296399,0.194197567,0.177629269,0.184700749,0.200382003,0.186494214,0.243949441,0.199079032,0.202429366,0.227283725,0.171253425,0.257626254,0.487695937,0.355640178,0.272031151,0.143852278,0.157726912,0.712143928,0.484615385,0.187406297,0.424242424,0.356971154,0.260784314,0.276595745,0.329710145,0.37414966,0.733333333,0.633333333,0.610837438,0.517857143,    'ECG-1e3dbae2-0204-42b0-9ad5-42ba792d4ba4_qrs_manual.txt',3.433333333,1
0.151515152,0.133886922,0.178024217,0.225336067,0.090909091,0.274819244,0.260473588,0.242021277,0.23690369,0.324665944,0.361197917,0.215136381,0.192329818,0.166200801,0.191749951,0.213483146,0.2261124,0.220674822,0.223781407,0.307271068,0.502180809,0.512297693,0.4375,0.351863437,0.260504202,0.232546979,0.165223392,0.219224227,0.199209367,0.247766059,0.19558994,0.236550561,0.214988714,0.260716908,0.456502902,0.466607673,0.402237034,0.345470724,0.27063875,0.204948726,0.177972339,0.252628096,0.225208472,0.138595307,0.436417883,0.213142575,0.278277179,0.108372393,0.142733739,0.177590132,0.21935281,0.140562523,0.776397516,0.572944297,0.698757764,0.660049628,0.407967033,0.498989899,0.075,0,0.047763786,0.148837209,0.3,0.682950192,0.596320346,    'ECG-1e3f85da-fd5c-4045-abc9-ae163281deac_qrs_manual.txt',6.7,3
0.207907294,0.144900519,0.280983917,0.162819329,0.095785441,0.268,0.18784153,0.242021277,0.222772277,0.259242958,0.179141104,0.123055113,0.12967033,0.166200801,0.175081999,0.148627507,0.1536802,0.129046243,0.175081999,0.496541268,0.539793814,0.340042373,0.201970443,0.152833119,0.127725659,0.120017771,0.200013842,0.214989536,0.205656714,0.196712855,0.174917249,0.214218894,0.238997018,0.325398919,0.394889274,0.271745562,0.197891122,0.155469722,0.165348521,0.287662806,0.266063132,0.487389519,0.215245502,0.273165178,0.472881186,0.139679549,0.209385761,0.282699363,0.492023329,0.313895603,0.263453268,0.232008341,0.337331334,0.572944297,0.582298137,0.705570292,0.615384615,0.554166667,0,0,0.149659864,0.548571429,0.689655172,0.801724138,0.613756614,    'ECG-1e6cf1c7-c62b-4a3a-84e9-ac47a35f4319_qrs_manual.txt',6.2,3
0.135802469,0.101473297,0.158255309,0.146730463,0.095785441,0.211206897,0.144262295,0.21875,0.202496771,0.181924883,0.179141104,0.125802311,0.103591381,0.219120273,0.246729316,0.313689521,0.30522845,0.3059455,0.301474727,0.451589595,0.572122348,0.427819988,0.323699422,0.20087368,0.204591105,0.186350778,0.194458162,0.22397989,0.243389665,0.24182761,0.238231837,0.239779875,0.256569244,0.30600062,0.372550176,0.303041633,0.21216718,0.200773508,0.16635084,0.081250415,0.077130932,0.073560777,0.048595151,0.072513497,0.249362595,0.120607188,0.163788565,0.200981319,0.174396438,0.22429127,0.207143967,0.094286632,0.149925037,0.143236074,0.036231884,0.069478908,0.034615385,0.153535354,0,0,0,0.201801802,0.366666667,0.463218391,0.383597884,    'ECG-1ea00dda-4531-448f-aac6-4920060845c0_qrs_manual.txt',6.066666667,3
0.490196078,0.266092766,0.501065361,0.417187035,0.273712737,0.341529235,0.273531037,0.345930233,0.282559025,0.358651911,0.705934066,0.292007797,0.367244898,0.238550942,0.468607825,0.543165979,0.528786721,0.440583412,0.481686295,0.610913719,0.60666138,0.23747439,0.540145985,0.245802239,0.137964396,0.421531439,0.525531479,0.499377278,0.536992538,0.547049594,0.535192282,0.501466137,0.39634848,0.472295269,0.539479989,0.550427113,0.451823863,0.357139378,0.50320481,0.25320213,0.121324961,0.23505424,0.139331843,0.200603319,0.122874544,0.055519722,0.165331032,0.307093703,0.116617794,0.422189693,0.427377191,0.121456159,0.151668352,0.155769231,0.18115942,0.256410256,0.126641651,0.088372093,0,0,0.112244898,0.090780142,0.43902439,0.653256705,0.151567944,    'ECG-1eb5a342-5d02-4c79-8616-41c86448286f_qrs_manual.txt',11.96666667,5
0.333333333,0.178176796,0.207750797,0.269005848,0.188811189,0.341529235,0.358483113,0.360294118,0.195971321,0.305633803,0.374656085,0.215136381,0.269714286,0.303248664,0.344033579,0.387084825,0.390495868,0.380168964,0.359187109,0.554913295,0.399131479,0.345378957,0.374233129,0.409299656,0.326759606,0.277738915,0.315841163,0.339291161,0.302054297,0.330080462,0.365792536,0.342815654,0.399333955,0.270753207,0.334371458,0.432797165,0.433077597,0.368694195,0.374494763,0.179591076,0.097047723,0.101849871,0.093961124,0.14633838,0.300878139,0.128223381,0.447994942,0.251960161,0.168921396,0.135113329,0.159771905,0.153417558,0.230566535,0.152714932,0.098814229,0.032634033,0.296703297,0.068468468,0,0.169934641,0.37414966,0.253968254,0.3,0.56261343,0.402777778,    'ECG-1ec14842-81bd-4483-9379-132c11aeb402_qrs_manual.txt',7.633333333,3
0.481481481,0.257222386,0.405537884,0.383825417,0.259259259,0.438743369,0.474547023,0.304775281,0.290685379,0.305633803,0.425322129,0.235690236,0.242941176,0.357907519,0.431298082,0.486124272,0.573637809,0.545635286,0.449603175,0.563837339,0.60666138,0.421407012,0.291666667,0.097107057,0.168067227,0.171310154,0.472567428,0.467697829,0.476796076,0.557296755,0.529808985,0.478229073,0.325202573,0.380965298,0.463711364,0.446761363,0.41337665,0.329615058,0.364430769,0.225605489,0.155651942,0.209231471,0.086468834,0.103778514,0.16641186,0.093184539,0.194329604,0.262922869,0.270881168,0.467835698,0.453167761,0.237796857,0.334448161,0.266272189,0.217391304,0.153846154,0.202626642,0.241269841,0.045614035,0.038690476,0.167173252,0.297674419,0.394736842,0.702463054,0.46031746,    'ECG-1eda0dba-01f2-446f-bd4c-a35a4c1c7dbe_qrs_manual.txt',9.7,4
0.308641975,0.123388582,0.240162358,0.156272183,0.098265896,0.205363985,0.358483113,0.563356164,0.222772277,0.149369904,0.311323529,0.087817309,0.124210526,0.186465698,0.246729316,0.271800493,0.22992118,0.254670353,0.242809995,0.385356455,0.416696705,0.267312349,0.198529412,0.172966941,0.110632538,0.145929102,0.187191605,0.233403282,0.249831037,0.199056336,0.197272306,0.20086316,0.314955742,0.312533186,0.324899977,0.187081164,0.185754084,0.143236189,0.170599832,0.201393151,0.135575344,0.290689544,0.133180048,0.12642904,0.302090404,0.21759493,0.41291246,0.461641413,0.283879479,0.418042886,0.246305945,0.201110367,0.262368816,0.322281167,0.210378682,0.384615385,0.286472149,0.435416667,0.208928571,0.163522013,0.301144848,0.5,0.586206897,0.43550447,0.345238095,    'ECG-1ef02ae9-8f2f-4008-8093-1803e5217f41_qrs_manual.txt',5.533333333,3
0.740740741,0.336824405,0.501065361,0.424201529,0.315942029,0.5234375,0.343481655,0.375,0.371603118,0.48163206,0.556858974,0.360840373,0.436302521,0.680891664,0.679120879,0.798098531,0.733031674,0.711485298,0.625116713,0.695930865,0.784278351,0.796936115,0.80733945,0.680421422,0.627294118,0.609027832,0.660855415,0.67675597,0.665122342,0.678893797,0.67107172,0.640912141,0.452681189,0.522952804,0.745196109,0.786949133,0.696254187,0.65847572,0.66739163,0.058118467,0.017973089,0.041480842,0.02373967,0.073113287,0.13089938,0.027928641,0.061168258,0.018142,0.023800312,0.036370639,0.029764662,0.070564801,0.067934783,0,0,0,0,0.02585034,0,0,0,0,0,0,0.021577381,    'ECG-1eff3ef7-5f84-4243-ac37-75f13977be1c_qrs_manual.txt',15.5,5
0.167958656,0.144900519,0.207750797,0.169521437,0.116465863,0.268,0.286885246,0.360294118,0.244163866,0.275943662,0.213505376,0.117659418,0.484642857,0.089950302,0.156049693,0.187033907,0.222339384,0.181579961,0.129315756,0.338902526,0.237227317,0.191333217,0.201970443,0.068680037,0.170955882,0.080706875,0.112659535,0.239329436,0.216339411,0.196798745,0.184503221,0.215273494,0.258774936,0.331962084,0.352498687,0.370177331,0.276137945,0.180352564,0.230870193,0.318391528,0.322514855,0.369203588,0.159768912,0.22861817,0.508921104,0.37046053,0.627983893,0.47104142,0.35789116,0.378423952,0.239963611,0.466311485,0.334448161,0.588461538,0.504658385,0.482758621,0.482142857,0.633333333,0.098113208,0.367924528,0.417655434,0.392982456,0.5,0.725369458,0.517857143,    'ECG-1f04d2ec-1483-4767-be89-a1dcc318c28b_qrs_manual.txt',6.966666667,3
0.526570048,0.309668508,0.467082197,0.417187035,0.299435028,0.490073145,0.511741249,0.471153846,0.342962131,0.445265653,0.556858974,0.380506823,0.400160214,0.491436535,0.238929288,0.479378322,0.521649129,0.545635286,0.258724814,0.707514451,0.796626054,0.73705489,0.75,0.690108778,0.681908057,0.700431582,0.550782737,0.496904718,0.529749437,0.617437423,0.582459996,0.530280182,0.489925092,0.575301115,0.70808484,0.714673914,0.688569819,0.688444745,0.689041935,0.116814033,0.343181897,0.308985008,0.131762538,0.152087934,0.277662052,0.075942982,0.104209599,0.027372481,0.026985196,0.027298583,0.028245946,0.008873078,0.050556117,0.311538462,0.212089077,0.122377622,0.096601073,0.057575758,0.061904762,0,0,0,0.019230769,0,0,    'ECG-1f229f24-089d-49f9-8835-a33f35b925df_qrs_manual.txt',14.1,5
0.394402036,0.284685083,0.458940397,0.390278976,0.299435028,0.333605826,0.133906833,0.4375,0.244163866,0.299499476,0.395663957,0.231455833,0.242941176,0.464302297,0.537558939,0.528370787,0.589407369,0.63639243,0.508882582,0.53752285,0.580541237,0.454381536,0.37962963,0.2766061,0.364705882,0.324672352,0.458852264,0.542100046,0.548396351,0.552257125,0.607327146,0.481849324,0.227729823,0.314175455,0.478596035,0.426789613,0.381219699,0.383799236,0.355742814,0.07723542,0.082339377,0.195386052,0.074136815,0.115883995,0.094056253,0.026507805,0.099224448,0.191022799,0.186621609,0.377429487,0.146539999,0.111533287,0.05574136,0,0.050556117,0,0,0.06031746,0,0.12037037,0,0.156097561,0.184210526,0.112522686,0.08877551,    'ECG-1f782c33-0b4c-4547-b8c8-f0859b04a463_qrs_manual.txt',9.2,3
0.268579838,0.21290172,0.308833131,0.25528106,0.192488263,0.392122746,0.286885246,0.331896552,0.282559025,0.337905695,0.433050847,0.1714353,0.192329818,0.2345863,0.212799194,0.364987314,0.287304216,0.296198984,0.242809995,0.163209793,0.410760309,0.249976328,0.296089385,0.20087368,0.191950464,0.174262052,0.271756093,0.300611357,0.338365226,0.304093806,0.288127744,0.363270209,0.221071929,0.337246953,0.377658816,0.384023728,0.367042207,0.278431489,0.234362744,0.22629916,0.341209216,0.242806261,0.243104928,0.21946474,0.465846019,0.495827282,0.365309864,0.495545924,0.394792037,0.459692233,0.216512051,0.238504728,0.645380435,0.519230769,0.527009223,0.62004662,0.616586538,0.410810811,0.203921569,0.361111111,0.443758899,0.48,0.513513514,0.712643678,0.69047619,    'ECG-1fc49be9-9e65-4416-8e17-3ab9a39908bf_qrs_manual.txt',8.233333333,3
0.252525253,0.20198133,0.254966887,0.246438243,0.25,0.32581786,0.273531037,0.318181818,0.23690369,0.264722191,0.417722222,0.196029981,0.210714286,0.183008558,0.334210296,0.318582541,0.287304216,0.440583412,0.33909465,0.53752285,0.516873389,0.520030817,0.413461538,0.414925373,0.354878478,0.348037482,0.24043815,0.36248851,0.299749237,0.312001889,0.474550686,0.340131557,0.337935176,0.309164898,0.462194822,0.419220439,0.452104391,0.359360776,0.354982886,0.246870241,0.175072281,0.248266238,0.186995214,0.180993963,0.288107884,0.107220686,0.296572843,0.098482443,0.131747059,0.1503816,0.104485785,0.068115351,0.507246377,0.415384615,0.407608696,0.358974359,0.106508876,0.23963964,0,0.040880503,0.023881893,0.101587302,0.073170732,0.231127679,0.17755102,    'ECG-20116fd8-0f15-4093-981b-38d8340468e6_qrs_manual.txt',7.666666667,3
0.339728217,0.188104861,0.270367572,0.250829777,0.178082192,0.156429598,0.211021974,0.291666667,0.290685379,0.270288397,0.28852381,0.185198629,0.178487395,0.402293071,0.40791433,0.43432778,0.436592819,0.480325928,0.43732445,0.385356455,0.663137364,0.497175141,0.396226415,0.314626866,0.350052521,0.348037482,0.389526699,0.383864594,0.364948029,0.37846432,0.404596044,0.325097725,0.335375997,0.383489344,0.51441285,0.405570704,0.30878264,0.327441489,0.317182285,0.092989225,0.055175682,0.1148482,0.047861565,0.084036362,0.026131068,0.191649384,0.137055854,0.174241101,0.196168107,0.196650261,0.064606709,0.027458736,0.150966184,0.086538462,0.155279503,0.05982906,0.028846154,0,0.023214286,0,0,0.08,0.314285714,0.08908046,0,    'ECG-2047c630-b55e-4274-9d24-9ecb9c8b69b0_qrs_manual.txt',8.4,3
0.120772947,0.071424503,0.098782983,0.153055051,0.065953654,0.357796765,0.314525353,0.345930233,0.115156131,0.259242958,0.236844444,0.065843621,0.080272109,0.15015015,0.14992722,0.194422151,0.147457049,0.208569762,0.143910763,0.591574233,0.410760309,0.213667508,0.230769231,0.150060508,0.148568803,0.145929102,0.146063121,0.15437629,0.159999643,0.14409319,0.159740131,0.201758252,0.383039882,0.26435632,0.194331264,0.213916388,0.178211255,0.138867142,0.136328861,0.160591992,0.177573189,0.150799975,0.24712807,0.13146947,0.703480539,0.089714039,0.409877158,0.405237931,0.406656299,0.267141118,0.149570322,0.117115842,0.501672241,0.346153846,0.362318841,0.331360947,0.445054945,0.591111111,0,0.303333333,0.697738555,0.7,0.551724138,0.593869732,0.421957672,    'ECG-205cdd9a-b321-4c1f-928a-499d399d7fc8_qrs_manual.txt',4.266666667,2
