0.066666667,0.110936715,0.046357616,0.114363449,0.072463768,0.182833044,0.328833173,0.471153846,0.282559025,0.324665944,0.261793103,0.137134503,0.108571429,0.117263538,0.146905912,0.158743878,0.163217856,0.097526012,0.156049693,0.4238921,0.704306773,0.527882003,0.201970443,0.128747567,0.132800512,0.120017771,0.096885043,0.155017498,0.11139997,0.134774107,0.130370174,0.121561994,0.380988185,0.572857628,0.529050012,0.382574985,0.192197657,0.178155953,0.129533304,0.153539747,0.294112181,0.123757203,0.164880078,0.243190593,0.458813274,0.222639306,0.192544587,0.147298486,0.483757094,0.513563747,0.419390616,0.209547624,0.391304348,0.359467456,0.347826087,0.438746439,0.599112426,0.407142857,0,0,0.067346939,0.656410256,0.724137931,0.774078478,0.745714286,    'ECG-7590f265-ca6c-486c-9f0c-c0c6720e36c6_qrs_manual.txt',8.833333333,3
0.481481481,0.304506644,0.492349852,0.390278976,0.259259259,0.401101533,0.247703117,0.304775281,0.307420841,0.337905695,0.527601246,0.302507682,0.367244898,0.505557414,0.583624151,0.714704446,0.573637809,0.009313916,0.508882582,0.610913719,0.737262094,0.595287309,0.64,0.616915423,0.577682982,0.576373668,0.530546228,0.591332321,0.652382768,0.599002963,0.52294024,0.512974809,0.411726008,0.471911387,0.588626327,0.592833422,0.609326523,0.561907848,0.583830937,0.087527628,0.075131974,0.087030966,0.079401783,0.39490546,0.158914426,0.037114952,0.087390053,0.119754268,0.014416486,0.070678563,0.021551407,0.05553003,0,0,0,0,0.103846154,0.115151515,0,0,0,0,0,0,0,    'ECG-75bc6229-3f07-4b9c-8795-0721c0e7a47e_qrs_manual.txt',12.66666667,5
0.285285285,0.205570902,0.320529801,0.250829777,0.185185185,0.341529235,0.358483113,0.4375,0.307420841,0.337905695,0.433050847,0.286888019,0.269714286,0.337236534,0.419464486,0.459616656,0.461327768,0.545635286,0.431298082,0.466097807,0.748673806,0.661893629,0.64,0.502064147,0.525255754,0.421531439,0.336656616,0.410180704,0.425811693,0.405987651,0.441981464,0.367233973,0.436562807,0.54858322,0.625163749,0.592667725,0.548236148,0.522103811,0.458136759,0.094210591,0.061383408,0.127871472,0.050502898,0.048415958,0.142319429,0.1828739,0.139904959,0.043985544,0.002910858,0.062325266,0.046703806,0.05031722,0.255754476,0.084199584,0.114416476,0.08974359,0,0.166666667,0.085245902,0,0,0,0.02173913,0,0.103571429,    'ECG-75c331b7-db00-4dbf-a0ae-c85c75f539c2_qrs_manual.txt',12.16666667,5
0.176470588,0.090219501,0.125393551,0.162819329,0.076923077,0.188343328,0.314525353,0.185606061,0.222772277,0.243307171,0.277605634,0.152122241,0.165350318,0.143930523,0.181657848,0.165633475,0.211229947,0.103626701,0.140941434,0.21383942,0.580541237,0.489780658,0.443708609,0.297256733,0.156774022,0.15415976,0.164789706,0.185964913,0.170468001,0.217851982,0.160974525,0.134830816,0.216356018,0.28049794,0.442629698,0.411516627,0.31842491,0.229467973,0.193471522,0.220373492,0.165922728,0.230744996,0.164512476,0.238071404,0.507126592,0.361626492,0.153944308,0.106948291,0.108792805,0.173595204,0.270915231,0.273177635,0.644122383,0.423076923,0.349378882,0.668435013,0.615384615,0.655172414,0.175,0,0,0,0.342857143,0.620689655,0.517857143,    'ECG-75c4cfd4-3388-4c3b-8f8e-98380ee1bd95_qrs_manual.txt',6.366666667,3
0.380116959,0.220441989,0.357714738,0.259793319,0.228070175,0.392122746,0.273531037,0.331896552,0.183252224,0.243307171,0.251609977,0.199742856,0.242941176,0.284975615,0.380214101,0.318582541,0.363754543,0.310893731,0.271089404,0.035419998,0.480970467,0.324425497,0.21969697,0.20087368,0.224504877,0.28177244,0.376190769,0.427144331,0.36287637,0.360599278,0.40821858,0.346540442,0.183294527,0.341595337,0.358427594,0.346871213,0.299741305,0.311164563,0.340933487,0.165103417,0.134014687,0.30043253,0.135032808,0.249228561,0.424075628,0.932833403,0.32771109,0.222533576,0.375564213,0.228899281,0.226215496,0.132046478,0.150966184,0.409919028,0.590062112,0.443438914,0.375,0.410810811,0.352083333,0.080246914,0.365448505,0.673684211,0.485714286,0.597363083,0.355102041,    'ECG-75fee8d6-4979-40fc-bad1-db8e8306506a_qrs_manual.txt',8.4,3
0.207907294,0.144900519,0.207750797,0.269005848,0.145299145,0.288793103,0.12375442,0.16460396,0.141940594,0.223161189,0.251609977,0.134248665,0.12967033,0.284975615,0.262804501,0.375915975,0.348407347,0.368874089,0.359187109,0.496541268,0.460695876,0.396610169,0.343195266,0.26474579,0.201384923,0.229029502,0.270446834,0.273098226,0.305835491,0.330288069,0.331583925,0.319970592,0.166811366,0.191172316,0.321014725,0.344278291,0.274637197,0.232122011,0.22300387,0.060854899,0.134162536,0.121608356,0.145556366,0.093635803,0.219925455,0.066199222,0.262748356,0.113010104,0.176130012,0.16414291,0.227486485,0.094516722,0,0.064903846,0,0.190045249,0.030542986,0.035185185,0,0.135416667,0,0.196491228,0.303030303,0.517241379,0.448809524,    'ECG-765530ae-9a01-44bd-8d95-6da80f9ac99b_qrs_manual.txt',5.833333333,3
0.263157895,0.194948698,0.169977925,0.242105263,0.090909091,0.268,0.260473588,0.360294118,0.23690369,0.351614109,0.482321429,0.168109162,0.165350318,0.258993625,0.250687831,0.304051753,0.291716687,0.315892974,0.246729316,0.53752285,0.539793814,0.285459411,0.419354839,0.253260016,0.275993641,0.246983292,0.262003204,0.284640458,0.253892705,0.297837014,0.242908605,0.232396072,0.312789204,0.42536093,0.385926165,0.463455907,0.343254268,0.280726379,0.256174021,0.163691142,0.217594576,0.143898425,0.189235285,0.079218726,0.300757674,0.126038805,0.221609323,0.30844283,0.226538149,0.433435241,0.159894397,0.11321382,0.203804348,0.334987593,0.280504909,0.403846154,0.234491315,0.268686869,0,0.112068966,0.357142857,0.347286822,0.388888889,0.453500522,0.367511521,    'ECG-768b18a3-5267-47c9-a1f1-a83e62acdaf2_qrs_manual.txt',8.333333333,3
0.274074074,0.128575632,0.186263235,0.288220551,0.161147903,0.374650513,0.405737705,0.4375,0.391734826,0.419826652,0.482321429,0.318942283,0.325810324,0.211614701,0.238929288,0.258643042,0.203993524,0.245927483,0.250687831,0.630976176,0.784278351,0.651890482,0.547794118,0.462686567,0.401061057,0.26980198,0.221776235,0.241858276,0.235058662,0.243675199,0.312683263,0.30425904,0.506487187,0.573592288,0.664888273,0.603965885,0.523637218,0.473995825,0.422391983,0.268233078,0.154575252,0.223904843,0.296040449,0.210034941,0.453434483,0.130540045,0.108759213,0.120172111,0.143584761,0.154186894,0.162453121,0.18968397,0.262368816,0.276923077,0.217391304,0.394871795,0.377622378,0.325714286,0,0,0,0.065306122,0.204545455,0.279967159,0.408834586,    'ECG-76f2fd4d-959b-4d29-ba68-2d838152f0dc_qrs_manual.txt',11.03333333,4
0.44,0.314917127,0.518959151,0.353070175,0.236641221,0.401101533,0.314525353,0.345930233,0.324832483,0.344699778,0.440911681,0.33625731,0.238706986,0.498449269,0.468607825,0.535721857,0.407282619,0.487230688,0.468607825,0.641291308,0.683344368,0.55217161,0.503521127,0.495270128,0.364705882,0.320160464,0.489881993,0.526485507,0.5459646,0.455423324,0.503539966,0.44935579,0.428567985,0.458488792,0.609159418,0.541556329,0.507951683,0.486012219,0.364944372,0.090073553,0.165592313,0.211784137,0.197714622,0.13914229,0.182174068,0.06203173,0.095516098,0.168997757,0.116842079,0.102894031,0.23782657,0.118785477,0,0.126641651,0.025879917,0.056680162,0.051923077,0.061788618,0,0,0,0.069565217,0.022727273,0.10180624,0.287698413,    'ECG-7727f5d6-06fb-4421-b91d-2b66d7a3cde9_qrs_manual.txt',10.9,4
0.194109772,0.184751381,0.221292015,0.190614573,0.174603175,0.349591652,0.314525353,0.360294118,0.215894156,0.243307171,0.251609977,0.1714353,0.14984127,0.200628283,0.212799194,0.294606742,0.309826203,0.434227672,0.296996165,0.44450419,0.615668326,0.408841044,0.25,0.111279048,0.127725659,0.159772142,0.210189082,0.273074143,0.28280478,0.28028336,0.368632129,0.335079099,0.327800182,0.383123681,0.377596607,0.333104398,0.239387805,0.216134365,0.200591302,0.163671685,0.26547805,0.189880174,0.097442785,0.078313256,0.342155025,0.201478895,0.239527861,0.220113897,0.284695247,0.491889558,0.33076429,0.197359723,0.412293853,0.50248139,0.135869565,0.235576923,0.118681319,0.281481481,0.228070175,0,0.025510204,0.461261261,0.5625,0.748275862,0.642857143,    'ECG-772df592-4b37-43bd-8ac1-c35665831bb9_qrs_manual.txt',7.7,3
0.333333333,0.261623459,0.384411615,0.35902749,0.241025641,0.366148399,0.328833173,0.360294118,0.282559025,0.331228752,0.417722222,0.286888019,0.50212766,0.438550694,0.508882582,0.573909237,0.597455283,0.627580512,0.544973545,0.610913719,0.715084614,0.632388549,0.64,0.530232051,0.518197207,0.489372014,0.425444418,0.505486709,0.503677411,0.538961221,0.532227725,0.479482217,0.473552037,0.452392326,0.573815823,0.577055307,0.552044473,0.507021153,0.506795957,0.050835499,0.055982349,0.108519407,0.047690013,0.053720599,0.116824741,0.077335626,0.144192889,0.060957497,0.001928073,0.037349981,0.046451683,0.080258724,0,0,0.027173913,0,0,0.029457364,0,0,0.064756672,0,0.02173913,0.024294671,0.049319728,    'ECG-774a9d58-ddab-42ae-86a4-db21da248fae_qrs_manual.txt',11.36666667,4
0.222222222,0.144900519,0.150662252,0.146730463,0.105882353,0.32581786,0.328833173,0.242021277,0.164961951,0.218309859,0.335505051,0.174806385,0.165350318,0.172830093,0.250687831,0.213483146,0.186470348,0.245927483,0.231281456,0.496541268,0.474111402,0.390616231,0.37962963,0.310210312,0.313419118,0.29835721,0.188682735,0.256334126,0.198691783,0.183387854,0.228303204,0.227373942,0.237847071,0.281719647,0.338338237,0.354035085,0.375676072,0.312953852,0.293149648,0.238490674,0.133385618,0.234627464,0.181824263,0.174241332,0.480911869,0.153412873,0.303059105,0.150698563,0.125862947,0.229483058,0.112027003,0.057139172,0.582298137,0.401985112,0.776397516,0.769230769,0.45,0.554166667,0.245283019,0.083333333,0.156620788,0.252631579,0.342105263,0.244334975,0.251082251,    'ECG-776f0da2-15d7-4454-9e1a-8ba94f5ef0fb_qrs_manual.txt',5.9,3
0.268579838,0.15945171,0.194701987,0.156272183,0.093333333,0.254683682,0.37385046,0.278846154,0.177052999,0.195085406,0.209017094,0.128583217,0.140987013,0.254820352,0.250687831,0.225343321,0.241567256,0.277284954,0.22008547,0.488744772,0.547680412,0.324425497,0.234536082,0.210728536,0.20782872,0.202125091,0.269806993,0.272900621,0.194317454,0.213931182,0.225025498,0.187222988,0.312318637,0.335728568,0.314375176,0.288797118,0.229325522,0.219358026,0.202835005,0.223200962,0.195105887,0.249602654,0.155159059,0.122325761,0.44487154,0.145970789,0.234362132,0.263504504,0.299362153,0.294890434,0.168655673,0.13311613,0.49088359,0.301488834,0.449775112,0.482758621,0.25066313,0.24516129,0.045614035,0,0.18707483,0.518095238,0.548387097,0.551724138,0.678571429,    'ECG-77bb8cbe-f3cf-45d7-b9b7-73ab1d3f8b18_qrs_manual.txt',6,3
0.416666667,0.205570902,0.314639989,0.264367816,0.188811189,0.188343328,0.222986074,0.360294118,0.266766299,0.331228752,0.317234568,0.196029981,0.175139147,0.207916833,0.18499102,0.262986484,0.245524297,0.192938603,0.209207854,0.4238921,0.60666138,0.180676245,0.14479638,0.1913031,0.156774022,0.156953195,0.302814093,0.304562402,0.311570173,0.288554298,0.229936137,0.208822126,0.317630614,0.413451519,0.432013047,0.375850969,0.323245121,0.247608205,0.196967197,0.417270458,0.422053163,0.44289937,0.301827929,0.387098311,0.3792844,0.119455012,0.231096032,0.498988891,0.569184742,0.447817048,0.443348834,0.231159244,0.50951087,0.421875,0.592885375,0.471153846,0.608753316,0.7125,0.023214286,0,0.324263039,0.41025641,0.542857143,0.75862069,0.642857143,    'ECG-78577654-3316-40a3-ad1d-2d260557702e_qrs_manual.txt',8.333333333,3
0.333333333,0.178176796,0.254966887,0.25528106,0.133333333,0.38330721,0.389597248,0.278846154,0.153264107,0.213529351,0.299758454,0.1714353,0.45974026,0.317489392,0.319875776,0.381469884,0.418801013,0.368874089,0.329379615,0.385356455,0.516873389,0.21752923,0.253968254,0.257048093,0.217734855,0.232546979,0.335783951,0.346155693,0.325117612,0.370999208,0.304985603,0.378286455,0.297412963,0.322317377,0.221822727,0.253483882,0.295191926,0.211569442,0.243545511,0.150888641,0.108006041,0.123832276,0.071638434,0.101793082,0.332439092,0.222730403,0.315900158,0.487500961,0.308540952,0.304445542,0.175415282,0.234090883,0.223785166,0.213800905,0.127877238,0.092307692,0.094405594,0.166666667,0.165454545,0,0.485383343,0.596078431,0.514285714,0.463218391,0.367511521,    'ECG-78ad473a-9c9b-4c91-97e2-015d5eabe0ec_qrs_manual.txt',6.533333333,3
0.268579838,0.184751381,0.308833131,0.217273954,0.164444444,0.261288998,0.328833173,0.405487805,0.307420841,0.324665944,0.323233831,0.174806385,0.192329818,0.280529499,0.288179728,0.370422108,0.309826203,0.291399192,0.231281456,0.451589595,0.683344368,0.447600859,0.305084746,0.371852394,0.292167696,0.265897178,0.284159729,0.325895766,0.329210969,0.284444481,0.276501962,0.238436124,0.427212964,0.489409775,0.546423962,0.451629128,0.376586811,0.312619312,0.291054361,0.124496292,0.154636363,0.224368717,0.135946636,0.205938908,0.349240084,0.20008079,0.180484366,0.194437357,0.306693831,0.138684047,0.144882166,0.125542695,0.296442688,0.472027972,0.60741688,0.4375,0.703473945,0.575757576,0.021311475,0,0.067346939,0.406349206,0.473684211,0.580295567,0.627705628,    'ECG-78bb02d2-db50-493e-a3c2-078e5e930366_qrs_manual.txt',9.733333333,4
0.432098765,0.257222386,0.398385762,0.365079365,0.283746556,0.392122746,0.405737705,0.4375,0.298971074,0.358651911,0.361197917,0.26722807,0.256025779,0.491436535,0.544973545,0.6582397,0.605614973,0.63639243,0.523028302,0.563837339,0.663137364,0.622881356,0.503521127,0.432246661,0.412047511,0.362736274,0.496112148,0.513329169,0.548658709,0.557602509,0.606061541,0.514481278,0.463064168,0.496773145,0.587794309,0.554015427,0.450374672,0.438422726,0.407466057,0.069818867,0.026276194,0.058292361,0.035653337,0.083233226,0.119694649,0.19189563,0.229627025,0.091493766,0.115393578,0.092706469,0.110678066,0.072377797,0,0,0,0,0,0.086363636,0.125806452,0,0,0.090780142,0.097560976,0.130361648,0.111969112,    'ECG-78dd0f4b-37b0-40aa-b311-8f2bbc9f677d_qrs_manual.txt',12.46666667,5
0.464480874,0.275242528,0.364238411,0.273708747,0.215686275,0.438743369,0.439260193,0.318181818,0.23690369,0.395814137,0.440911681,0.231455833,0.299078341,0.385147146,0.43732445,0.486124272,0.401622718,0.421734104,0.431298082,0.02504817,0.597807094,0.361799218,0.482758621,0.371852394,0.296323529,0.421531439,0.417229396,0.481171862,0.423311544,0.394053855,0.411690588,0.476860174,0.285777423,0.432963465,0.437187401,0.569650375,0.429326754,0.358594611,0.446615543,0.140233099,0.146074883,0.166636625,0.109990899,0.143183552,0.270834427,0.843996703,0.202909886,0.282615383,0.155057188,0.244793617,0.195957535,0.09976385,0.057208238,0.186390533,0.143020595,0.239316239,0.144230769,0.150793651,0.245283019,0,0.073203194,0.2,0.3,0.346691519,0.212454212,    'ECG-79798d48-5181-4f35-a3e5-86c2f0895535_qrs_manual.txt',11.23333333,4
0.352798054,0.236187845,0.391344525,0.347205222,0.25,0.51208674,0.328833173,0.360294118,0.290685379,0.358651911,0.410247934,0.262508122,0.293988571,0.29401283,0.359187109,0.43432778,0.521649129,0.466763006,0.468607825,0.707514451,0.704306773,0.489780658,0.443708609,0.456434046,0.417647059,0.469856232,0.367871746,0.402505269,0.433262201,0.515934311,0.494721614,0.547018741,0.477759232,0.478381952,0.562112536,0.503731018,0.47619055,0.455840908,0.497752793,0.177449136,0.152151184,0.24867998,0.105567722,0.16119905,0.229286142,0.054330733,0.139831568,0.22774774,0.168904086,0.113680351,0.091913455,0.052643554,0.27173913,0.259615385,0.200228833,0.052532833,0.053254438,0.028148148,0,0,0.088035214,0.165925926,0.119047619,0.078216989,0.023538961,    'ECG-7983550c-da23-4802-9e67-61c1f2be64be_qrs_manual.txt',10.63333333,4
0.359477124,0.205570902,0.320529801,0.313840156,0.196217494,0.392122746,0.456674473,0.266304348,0.251558489,0.337905695,0.402896175,0.302507682,0.269714286,0.29401283,0.283840388,0.440540365,0.474153298,0.538011268,0.402242378,0.417228041,0.58910162,0.475313191,0.58778626,0.481965174,0.369709469,0.372836057,0.35603568,0.366396724,0.420811691,0.455399167,0.464675588,0.41803779,0.260510701,0.339053754,0.529238824,0.534563802,0.494085375,0.442450283,0.41983357,0.170736186,0.174775975,0.147492125,0.080461838,0.067918614,0.278915922,0.22435345,0.151840196,0.131190084,0.049978235,0.083080534,0.19453183,0.097443261,0.186335404,0.237362637,0,0,0,0.063333333,0.144444444,0,0.02244898,0,0.090909091,0.213793103,0.136278195,    'ECG-79bbe081-a238-472f-928e-1eacbff131b9_qrs_manual.txt',9.466666667,4
1,0.048919165,0.111803662,0.137508576,0.154684096,0.333605826,0.133906833,0.115566038,0.164961951,0.195085406,0.129962121,0.059697856,0.082492401,0.011836421,0.069436784,0.113628126,0.123588829,0.122533798,0.048803601,0.062210011,0.580541237,0.229366249,0.098739496,0.092537313,0.068912449,0.042629263,0.101540941,0.098520985,0.096537805,0.15270713,0.148519911,0.140372663,0.150994774,0.253441922,0.289506768,0.225968402,0.127354914,0.091324268,0.055261215,0.787137658,0.297574737,0.304765845,0.292465834,0.439766191,0.861025963,0.427795457,0.044140355,0.347115354,0.517819754,0.345728773,0.295288241,0.292141113,0.756143667,0.5625,0.52173913,0.398860399,0.678994083,0.769047619,0.23877551,0,0.164260826,0.633333333,0.777777778,0.769655172,0.847402597,    'ECG-7a27fb0b-7c07-49a6-a517-7329320e831e_qrs_manual.txt',3.5,2
0.296803653,0.168633042,0.265165563,0.201754386,0.196217494,0.366148399,0.260473588,0.185606061,0.222772277,0.344699778,0.329323308,0.227284629,0.218430584,0.2345863,0.250687831,0.28534876,0.296174414,0.357822114,0.324601729,0.15658929,0.563841474,0.569007264,0.419354839,0.342223792,0.279971228,0.250686849,0.232785697,0.256547803,0.233567507,0.279750307,0.34243253,0.334208509,0.133640753,0.286801339,0.500539439,0.452756855,0.387047538,0.330500234,0.28636028,0.19037325,0.217064122,0.27348772,0.130941887,0.193634992,0.331700896,0.454519422,0.11510362,0.03228243,0.244442394,0.148961727,0.232373956,0.172218802,0.144927536,0.311538462,0.289855072,0.104218362,0.213800905,0.479279279,0.216666667,0,0,0.380952381,0.333333333,0.549753695,0.6796875,    'ECG-7a7aa0f3-fc01-4a1b-9ea4-9789d37582da_qrs_manual.txt',7.2,3
0.456187895,0.266092766,0.492349852,0.403508772,0.310344828,0.419567339,0.492896175,0.421296296,0.342962131,0.419826652,0.518209877,0.330383481,0.348869565,0.408149497,0.334210296,0.566074665,0.363754543,0.473503859,0.391098662,0.504466632,0.704306773,0.73705489,0.697478992,0.652312209,0.59370725,0.560783146,0.471320959,0.457187312,0.529347275,0.558993005,0.565206238,0.512604797,0.374553621,0.443990496,0.705073888,0.697599972,0.643766709,0.601933089,0.577535983,0.153003356,0.23893524,0.152195723,0.207924834,0.15904181,0.248394928,0.130016673,0.03217091,0.021357684,0.024614486,0.026982333,0.038316251,0.038265087,0.244565217,0.300607287,0.155279503,0.282051282,0.173076923,0.265116279,0.220338983,0.073446328,0,0,0,0,0.023015873,    'ECG-7ab39212-6508-4f95-aaae-369e0882ea8a_qrs_manual.txt',11.83333333,5
0.237084218,0.21290172,0.190457193,0.162819329,0.098265896,0.349591652,0.247703117,0.254032258,1,0.233082707,0.222657952,0.178223336,0.199533528,0.172830093,0.238929288,0.258643042,0.222339384,0.277284954,0.209207854,0.572919331,0.435014728,0.38470116,0.227040816,0.20087368,0.143219677,0.168385589,0.229584964,0.293425932,0.239954172,0.221474837,0.239590491,0.357060705,0.354640527,0.247786957,0.347336001,0.316848753,0.228968291,0.21605621,0.208514629,0.318784446,0.321668188,0.23228507,0.163271225,0.123348535,0.493600791,0.060933052,0.401946739,0.376352376,0.486415525,0.298847082,0.398228028,0.243240031,0.374812594,0.259615385,0.326086957,0.287179487,0.173076923,0.102702703,0,0.13,0.080174927,0.345945946,0.612903226,0.570114943,0.714285714,    'ECG-7ad6f5c9-b0ed-4769-b0f2-1f44c82ee474_qrs_manual.txt',6.666666667,3
0.359477124,0.209210679,0.297461369,0.293197021,0.174603175,0.318161894,0.389597248,0.345930233,0.229774329,0.233082707,0.305498783,0.196029981,0.265081788,0.322342973,0.344033579,0.381469884,0.368983957,0.434227672,0.120851874,0.355713651,0.643645653,0.527882003,0.338235294,0.2766061,0.309072782,0.243318114,0.370492535,0.352733311,0.370855858,0.410456261,0.374452085,0.312857192,0.331279889,0.414441046,0.443466628,0.347569213,0.288721037,0.295840375,0.281439483,0.17265956,0.173106854,0.210408278,0.138229674,0.115073906,0.375777209,0.210317369,0.186445654,0.087195265,0.192470515,0.209063895,0.121314163,0.228141701,0.362318841,0.305429864,0.621118012,0.378378378,0.504395604,0.246296296,0.139285714,0.037356322,0,0.140350877,0.529411765,0.251521298,0.258928571,    'ECG-7b190040-0164-4946-806e-559ac7de4880_qrs_manual.txt',8.7,3
0.117117117,0.136590561,0.111803662,0.156272183,0.065953654,0.261288998,0.085060315,0.175,0.153264107,0.204174688,0.204585987,0.143015767,0.08473644,0.067221789,0.096688855,0.155343055,0.189911837,0.174174327,0.109891785,0.07921216,0.516873389,0.356256073,0.282967033,0.074980827,0.077176934,0.087252475,0.092787624,0.133384687,0.134545892,0.170900825,0.14428746,0.165138211,0.128202692,0.260638464,0.288831056,0.317727973,0.150753662,0.143618046,0.105008849,0.361211205,0.360986803,0.280006109,0.197619804,0.148699432,0.552206755,0.383102848,0.194246839,0.216166529,0.225178226,0.60240536,0.492441947,0.272596478,0.724637681,0.678994083,0.836120401,0.678062678,0.653846154,0.928888889,0.054166667,0,0.164260826,0.518918919,0.814814815,0.950191571,0.828571429,    'ECG-7b23d34b-b898-4d54-bc46-30f839c6b1e8_qrs_manual.txt',5.333333333,2
0.327029157,0.21290172,0.314639989,0.293197021,0.228070175,0.410248147,0.405737705,0.304775281,0.274587459,0.388106416,0.457043478,0.26722807,0.265081788,0.438550694,0.488352917,0.598035568,0.543343653,0.601849711,0.501949318,0.520716957,0.615668326,0.622881356,0.476027397,0.523036989,0.317815126,0.399204161,0.406470086,0.452839523,0.46413943,0.475546795,0.493479627,0.48282902,0.394060603,0.400429402,0.582397195,0.613978804,0.568038938,0.441594705,0.431824754,0.052242633,0.020036634,0.031888029,0.015421576,0.043078227,0.160201043,0.119578585,0.117980598,0.051466245,0.178826134,0.066607177,0.193409356,0.076623197,0.029377203,0,0,0,0,0.029457364,0.220338983,0.038011696,0,0.108843537,0.021276596,0.469301934,0.381578947,    'ECG-7ba4c80e-1022-497f-9166-a4ba75e33239_qrs_manual.txt',11.46666667,4
0.102880658,0.110936715,0.10522443,0.166150671,0.133333333,0.341529235,0.571461556,0.4375,0.381560737,0.337905695,0.187412008,0.109803922,0.065364431,0.147026391,0.18499102,0.209601634,0.261742314,0.296198984,0.209207854,0.102761721,0.835212629,0.64205688,0.419354839,0.197652514,0.068912449,0.107875223,0.141356361,0.20027224,0.174912451,0.241694385,0.247009703,0.228782396,0.469537606,0.571758398,0.695435877,0.497102397,0.212006082,0.135935172,0.109162375,0.113937727,0.189409305,0.135812595,0.143573149,0.169515484,0.535883515,0.454486317,0.077452002,0.134969041,0.176735237,0.245911912,0.407524298,0.159115229,0.161030596,0.296703297,0.116459627,0.215384615,0.138461538,0.158333333,0.146774194,0,0,0.071111111,0.5,0.633461047,0.621428571,    'ECG-7c0a57d9-066f-4eda-a10a-8f527613a514_qrs_manual.txt',9.833333333,4
0.102880658,0.071424503,0,0.030760758,0,0.156429598,0.211021974,0.21875,0.153264107,0.157183099,0.116259259,0.040530369,0.354887218,0.024196963,0.06009214,0.062600321,0.077745784,0.079795882,0.064728659,0.430657901,0.229846206,0.21752923,0.07,0.052578019,0.068912449,0.042629263,0.009207561,0.069779497,0.020355062,0.045716283,0.039106271,0.061053087,0.156829055,0.143290561,0.196686774,0.118888212,0.088294814,0.050314543,0.076666916,0.295561585,0.344772187,0.155805427,0.179368243,0.12070105,0.610191321,0.124311244,0.609052469,0.447947847,0.730065478,0.459729002,0.260273311,0.633310728,0.621118012,0.406354515,0.207039337,0.608695652,0.496655518,0.584615385,0.104,0.433333333,0.56122449,0.761904762,0.76,0.743628186,0.900621118,    'ECG-7c1333e4-ef29-4bee-8560-8a8fdab47b98_qrs_manual.txt',1.766666667,1
0.291005291,0.224293493,0.254966887,0.28331467,0.181609195,0.205363985,0.343481655,0.318181818,0.159065087,0.228084927,0.266990741,0.239989286,0.192329818,0.271778414,0.271089404,0.294606742,0.374271801,0.331204794,0.315200915,0.397823869,0.435014728,0.367413887,0.333333333,0.297256733,0.253002772,0.246983292,0.298460087,0.370314802,0.294370456,0.343304383,0.377121143,0.332753389,0.2477524,0.302627531,0.309948676,0.344260117,0.312433843,0.357114943,0.274045597,0.198106253,0.258026672,0.200277964,0.148712577,0.176163511,0.178913688,0.250641075,0.412768119,0.189511932,0.16866471,0.160073337,0.255513364,0.143765866,0.339673913,0.356043956,0.296442688,0.380090498,0.237362637,0.205405405,0,0.041666667,0.213799806,0.280701754,0.4,0.326628352,0.388392857,    'ECG-7d1137d2-93f6-4ced-bc2e-411b103d350c_qrs_manual.txt',7.666666667,3
0.237084218,0.136590561,0.169977925,0.190614573,0.145299145,0.349591652,0.273531037,0.318181818,0.25909133,0.380540121,0.323233831,0.235690236,0.118876961,0.143930523,0.266925818,0.250080257,0.253554193,0.296198984,0.238929288,0.563837339,0.474111402,0.447600859,0.21969697,0.249511604,0.145882353,0.192569497,0.22189828,0.267721707,0.234124631,0.284842897,0.287965928,0.26986579,0.343187515,0.337358483,0.474288888,0.428257473,0.354851981,0.242268715,0.1986096,0.285873363,0.130483645,0.199665703,0.186131989,0.183271651,0.413180481,0.122392676,0.351686639,0.144413958,0.354731807,0.271059678,0.456605748,0.12364506,0.398550725,0.368486352,0.434782609,0.277915633,0.324519231,0.409803922,0,0.081761006,0.070153061,0.380952381,0.416666667,0.83512931,0.591836735,    'ECG-7d18ef0a-233c-41a9-b085-92b88bf1fef1_qrs_manual.txt',7.866666667,3
0.274074074,0.168633042,0.225920027,0.237829674,0.063829787,0.274819244,0.211021974,0.242021277,0.095167726,0.106492614,0.140655106,0.087817309,0.140987013,0.153302178,0.223781407,0.33866698,0.253554193,0.228934299,0.205650394,0.520716957,0.42882211,0.249976328,0.127753304,0.012942282,0.019195046,0.022937881,0.228895861,0.254136053,0.299407429,0.324717799,0.177859014,0.228582535,0.346033996,0.266285638,0.226163619,0.165792801,0.060530736,0.09873995,0.125750119,0.278133138,0.1940641,0.207895143,0.236818888,0.086523252,0.392110911,0.088994544,0.353538632,0.328833971,0.341959495,0.790480758,0.485763872,0.42163519,0.18115942,0.167493797,0.135869565,0.095022624,0.111263736,0.35625,0.022413793,0.04248366,0.088614393,0.497777778,0.833333333,0.769655172,0.704285714,    'ECG-7d3cefdc-43c8-43c8-a669-d2f8a6bedb62_qrs_manual.txt',5.033333333,2
0.359477124,0.279926335,0.412803532,0.347205222,0.259259259,0.5234375,0.592505855,0.525,0.371603118,0.419826652,0.482321429,0.281852171,0.288979592,0.342315181,0.475105142,0.573909237,0.461327768,0.501294372,0.402242378,0.719332049,0.784278351,0.595287309,0.58778626,0.342223792,0.322261663,0.324672352,0.376272878,0.501350402,0.51926556,0.499732264,0.493793109,0.463096336,0.642592262,0.625728727,0.65236277,0.616762447,0.514537405,0.434450449,0.446835965,0.131721448,0.134755567,0.097163203,0.094935215,0.125420853,0.368279493,0.090756663,0.163296919,0.165169956,0.113187663,0.28295927,0.203671658,0.140073056,0.241545894,0.129807692,0.053022269,0.134615385,0.129807692,0.247154472,0.188405797,0,0.081632653,0.152380952,0.431818182,0.587931034,0.504578755,    'ECG-7db1deb5-b13b-4063-b5b8-a320a2f226c8_qrs_manual.txt',13.53333333,5
0.308641975,0.191503658,0.297461369,0.298245614,0.171171171,0.254683682,0.133906833,0.154411765,0.282559025,0.365816521,0.425322129,0.231455833,0.234534161,0.280529499,0.165438398,0.343820225,0.385026738,0.228934299,0.271089404,0.391544661,0.60666138,0.622881356,0.563432836,0.260876469,0.211098232,0.277738915,0.304892787,0.295690847,0.36984746,0.41280089,0.298644931,0.314564288,0.185600324,0.28139084,0.545432017,0.582668905,0.46072166,0.409386756,0.380821876,0.204854473,0.372355891,0.237855649,0.169717342,0.25801969,0.253881637,0.208897347,0.040392007,0.04653078,0.063589285,0.342970552,0.212759924,0.107693557,0.559947299,0.569478908,0.341614907,0.116424116,0.503496503,0.387037037,0,0,0,0,0.19047619,0.219274978,0.23015873,    'ECG-7e2e5900-8264-4ce6-938a-0167c10908c1_qrs_manual.txt',8.433333333,3
0.247311828,0.191503658,0.326504359,0.205561072,0.167785235,0.223158307,0.075838823,0.154411765,0.130973727,0.233082707,0.28852381,0.1714353,0.140987013,0.357907519,0.359187109,0.39276181,0.363754543,0.415593799,0.319875776,0.069364162,0.435014728,0.324425497,0.305084746,0.242131312,0.154014308,0.222100602,0.334634107,0.382596309,0.316926172,0.322197842,0.363592467,0.290131985,0.088364438,0.197543726,0.314933952,0.351892517,0.310890838,0.268565365,0.229516179,0.047998284,0.079447493,0.152191318,0.08153309,0.102550283,0.203016985,0.564584617,0.241723731,0.200902842,0.237124046,0.354865508,0.298208577,0.150714974,0.031969309,0.02967033,0.191815857,0.032634033,0.089010989,0.072380952,0.165957447,0,0.106899903,0.364912281,0.428571429,0.83512931,0.414285714,    'ECG-7e3c3dab-1e3b-4394-8fae-ef8e78ffa6a7_qrs_manual.txt',6.066666667,3
0.291005291,0.209210679,0.221292015,0.213319924,0.151515152,0.318161894,0.343481655,0.345930233,0.183252224,0.195085406,0.294100719,0.178223336,0.162169982,0.131818618,0.175081999,0.176193514,0.2261124,0.250277901,0.10720791,0.451589595,0.516873389,0.21752923,0.205445545,0.131330248,0.10130719,0.218688119,0.224552543,0.296050031,0.265664047,0.263710514,0.24402065,0.281996737,0.319367718,0.319117466,0.289545249,0.254323076,0.246466478,0.207529812,0.231676155,0.35661466,0.378218628,0.392968487,0.265057943,0.277766641,0.618262652,0.298190326,0.300412359,0.427129824,0.3580381,0.562754115,0.428775798,0.202268326,0.398550725,0.334987593,0.525946704,0.555831266,0.311538462,0.335294118,0.208928571,0.040880503,0.328521653,0.690196078,0.612903226,0.64137931,0.295918367,    'ECG-7ed41615-b79b-43a4-9313-db232c1985d6_qrs_manual.txt',5.833333333,3
0.194109772,0.125966851,0.121940685,0.194282001,0.095785441,0.211206897,0.314525353,0.242021277,0.071799986,0.181924883,0.222657952,0.152122241,0.07375,0.143930523,0.146905912,0.213483146,0.2261124,0.17786076,0.178354978,0.417228041,0.289488218,0.144230769,0.191747573,0.144589552,0.127725659,0.127555613,0.137662535,0.16968393,0.170781975,0.194397118,0.150372282,0.166738981,0.212437483,0.201358555,0.126178353,0.198882911,0.171022709,0.162306459,0.116063664,0.216093374,0.244924802,0.137911491,0.155757214,0.233555288,0.466182943,0.227391478,0.683118244,0.502377476,0.320818855,0.39229014,0.300034456,0.121605727,0.334448161,0.384615385,0.27173913,0.192307692,0.461538462,0.211111111,0.075,0.553191489,0.693277311,0.633333333,0.724137931,0.687192118,0.58,    'ECG-7f37bfe9-8618-4f8d-85e3-f41c167b48b3_qrs_manual.txt',4.333333333,2
0.167958656,0.194948698,0.240162358,0.213319924,0.154684096,0.281749369,0.154826958,0.21875,0.23690369,0.331228752,0.323233831,0.104719162,0.113665306,0.153302178,0.181657848,0.245859737,0.214898644,0.224785263,0.175081999,0.451589595,0.524393214,0.350783094,0.25,0.214078859,0.201384923,0.15415976,0.182717882,0.307372746,0.213211806,0.241724102,0.224971221,0.237012081,0.251637749,0.321343437,0.375476036,0.346887227,0.267912628,0.197165152,0.157997366,0.233616338,0.430368371,0.328599427,0.278803811,0.294411864,0.578594788,0.171206237,0.189159915,0.36324274,0.461482405,0.382436142,0.162990806,0.191259408,0.310559006,0.389423077,0.112443778,0.251282051,0.322281167,0.268686869,0,0,0.208827717,0.280701754,0.393939394,0.534482759,0.537037037,    'ECG-7f3fb979-93fd-408a-be88-11cadf2fb9dc_qrs_manual.txt',7.233333333,3
0.102880658,0.171772978,0.154437086,0.140547999,0.095785441,0.156429598,0.12375442,0.16460396,0.110044592,0.141759649,0.116259259,0.128583217,0.138106713,0.106061654,0.223781407,0.194422151,0.169715733,0.233122478,0.15297503,0.338902526,0.302717901,0.280843516,0.2125,0.131330248,0.140580461,0.16261695,0.094216442,0.242395057,0.150654649,0.179379987,0.201821602,0.144033886,0.150595489,0.15342778,0.263522915,0.195964017,0.154791342,0.168426639,0.181760515,0.200992551,0.246334348,0.237843939,0.212981166,0.172670534,0.386169146,0.231216964,0.427933482,0.238668757,0.295864287,0.271703413,0.287645084,0.20682916,0.260869565,0.242307692,0.25083612,0.461538462,0.716180371,0.717777778,0.053061224,0.235507246,0.196428571,0.533333333,0.857142857,0.763546798,0.517857143,    'ECG-7f4b03f3-7db4-4d5b-9b06-cc4f769b5e0e_qrs_manual.txt',3.6,2
0.49905838,0.284685083,0.364238411,0.390278976,0.25,0.468931376,0.511741249,0.506578947,0.342962131,0.436619718,0.499939394,0.302507682,0.293988571,0.408149497,0.385624555,0.453183521,0.455031599,0.494219653,0.425345206,0.282758367,0.683344368,0.613531307,0.563432836,0.323613148,0.260504202,0.246983292,0.483323706,0.466954722,0.445428492,0.495861617,0.441822205,0.485614219,0.483177169,0.489320231,0.65978296,0.611892135,0.539637,0.489334795,0.415202186,0.187343741,0.232689264,0.184535448,0.165707531,0.143193817,0.321128205,0.206227223,0.194793413,0.126248426,0.158399275,0.262789405,0.244691185,0.207787267,0.27173913,0.327935223,0.25083612,0.276134122,0.327935223,0.211111111,0.082539683,0.071038251,0.020786092,0.108843537,0.326086957,0.458128079,0.463345865,    'ECG-7f5c32e3-097e-4b5b-bf02-e71d91838c63_qrs_manual.txt',11.86666667,5
0.49905838,0.320254705,0.405537884,0.396839205,0.211678832,0.5234375,0.314525353,0.375,0.307420841,0.388106416,0.537169811,0.272024146,0.348869565,0.238550942,0.292564745,0.280788177,0.207595061,0.204608441,0.198635217,0.756262042,0.748673806,0.577627119,0.532608696,0.426397425,0.188865546,0.294141914,0.475701163,0.532978563,0.436562725,0.442396774,0.370312179,0.499111448,0.478684065,0.481427092,0.597675973,0.593070017,0.580059623,0.413039387,0.522935407,0.246454196,0.296324723,0.432004702,0.486511217,0.373498809,0.543092524,0.000960494,0.089708015,0.11494141,0.11600831,0.177112537,0.395856289,0.14895755,0.27173913,0.253283302,0.411280846,0.436590437,0.534065934,0.648780488,0,0,0,0.021768707,0.042553191,0.421960073,0.161111111,    'ECG-7f84abeb-cc6e-4821-a620-bba9e36549bc_qrs_manual.txt',10.9,4
0.327029157,0.096897578,0.203347824,0.209415945,0.733333333,0.303232759,0.144262295,0.185606061,0.125618812,0.195085406,0.213505376,0.1714353,0.093957845,0.246602214,0.175081999,0.221353492,0.249519755,0.245927483,0.242809995,0.53752285,0.399131479,0.128909048,0.127753304,0.136563877,0.103609626,0.145929102,0.282443225,0.198239777,0.205171452,0.253335072,0.266478107,0.259620811,0.264921099,0.179930378,0.248442032,0.286372696,0.18570799,0.166892828,0.142756249,0.274597507,0.208401145,0.281557509,0.182014512,0.467870205,0.343965151,0.030479856,0.402645339,0.504722243,0.526899346,0.366724147,0.330003001,0.158643124,0.315568022,0.259615385,0.299850075,0.138957816,0.415384615,0.335294118,0,0.046099291,0.37414966,0.548571429,0.586206897,0.737217598,0.597527473,    'ECG-7fd0920a-f40a-4593-80af-63d87c328a93_qrs_manual.txt',4.9,2
0.448028674,0.294434712,0.492349852,0.396839205,0.236641221,0.976800203,0.314525353,0.64673913,0.352310231,0.403667287,0.482321429,0.297213622,0.309508197,0.438550694,0.475105142,0.581846222,0.528786721,0.569101419,0.508882582,0.673438465,0.737262094,0.672070744,0.697478992,0.5918084,0.45282274,0.509724187,0.482383795,0.535926757,0.576694391,0.558041141,0.514507352,0.516781325,0.487467027,0.51274762,0.664105027,0.663559434,0.578677778,0.510089528,0.504902437,0.093298718,0.146358835,0.190312756,0.115507598,0.104604516,0.278414623,0.04080033,0.111833019,0.081248465,0.026018678,0.06636966,0.100985779,0.039746701,0.108695652,0,0,0.025641026,0.025961538,0.117829457,0,0.10483871,0,0,0,0,0,    'ECG-800a28bb-aa4f-4e59-a301-c1e39ec4884c_qrs_manual.txt',12.76666667,5
0.124468731,0.188104861,0.025849178,0.064327485,0.029126214,0.15136742,0.133906833,0.038043478,0.037718058,0.103201024,0.030126984,0.021524861,0.026412113,0,0.057800224,0.04709187,0.035317201,0.057409354,0.069436784,0.307271068,0.252489953,0.086975914,0.052325581,0.048703849,0.027678571,0.038930547,0.017777953,0.071340315,0.040623132,0.031010201,0.055374126,0.116993009,0,0.046992548,0.046523539,0.068317777,0.028226086,0.03762072,0.028312207,0.453251331,0.469179121,0.349202654,0.357891948,0.26860046,0.620186169,0.195034565,0.474346552,0.607977526,0.629797741,0.322223219,0.37294576,0.276943093,0.776397516,0.767558528,0.790513834,0.832167832,0.649038462,0.678571429,0.090697674,0.30952381,0.977616853,0.902564103,0.818181818,0.976011994,0.739795918,    'ECG-80148023-ebd9-49b0-a6ec-eab16d154503_qrs_manual.txt',0.666666667,1
0.163776493,0.194948698,0.203347824,0.176384074,0.157894737,0.188343328,0.286885246,0.4375,0.244163866,0.181924883,0.246621622,0.099751294,0.674285714,0.211614701,0.306001188,0.280788177,0.309826203,0.363318232,0.231281456,0.458786582,0.58910162,0.340042373,0.274456522,0.234902411,0.191950464,0.192569497,0.207719136,0.313746262,0.281771946,0.274740866,0.297706162,0.189631824,0.327204594,0.43332701,0.340114759,0.272245638,0.225550865,0.187269944,0.227096662,0.111207691,0.177980687,0.183861894,0.084602439,0.131267159,0.248264216,0.217401564,0.366770562,0.344997458,0.193236097,0.207252644,0.116019527,0.33250096,0.036231884,0.032451923,0.135869565,0.100961538,0.032451923,0.277083333,0.046428571,0,0.080174927,0.426666667,0.451612903,0.221165279,0.276190476,    'ECG-80a09159-0532-41a0-b0ac-a4c5aaf4aaec_qrs_manual.txt',7.533333333,3
0.128205128,0.048919165,0.077262693,0.197994987,0.351681957,0.205363985,0.049180328,0.134615385,0.136413641,0.23815621,0.175081301,0.107246674,0.192329818,0.069666688,0.086503737,0.116681072,0.10124209,0.049360265,0.086503737,0.391544661,0.355636631,0.38470116,0.141891892,0.092537313,0.143219677,0.050193553,0.069364664,0.100034444,0.083800173,0.13903395,0.227091396,0.119851416,0.062634582,0.145606623,0.321453289,0.284810482,0.131393309,0.166816685,0.256914297,0.324076003,0.269331151,0.284358301,0.396335909,0.912997288,0.62371108,0.139561512,0.341260668,0.13233724,0.658084449,0.395837704,0.258303749,0.484673381,0.56710775,0.664615385,0.61436673,0.598290598,0.576923077,0.723809524,0,0.047101449,0.053449951,0.487619048,0.592592593,0.610837438,0.379761905,    'ECG-80a70afe-c7ae-4680-b5d2-a7b9c8f7c711_qrs_manual.txt',4.3,2
0.308641975,0.168633042,0.249967537,0.229446164,0.167785235,0.295953263,0.165607226,0.21875,0.202496771,0.275943662,0.388548387,0.188758934,0.400160214,0.200628283,0.334210296,0.422114402,0.368983957,0.415593799,0.374866196,0.496541268,0.563841474,0.475313191,0.496503497,0.371852394,0.37477445,0.289973196,0.274077114,0.346048283,0.343156395,0.357020624,0.336407221,0.319695697,0.229608111,0.282702856,0.453143072,0.444075471,0.395532067,0.364242812,0.332295122,0.284549788,0.101987749,0.108260345,0.081722577,0.115476212,0.220062318,0.1230352,0.174742928,0.117039324,0.054988598,0.151452489,0.056937594,0.172290657,0.441576087,0.122171946,0.031969309,0.153846154,0.062937063,0.205405405,0,0,0.07164568,0.025396825,0.179487179,0.17334576,0.503061224,    'ECG-80b381b3-14b5-4992-991a-03fd53ebda49_qrs_manual.txt',7.233333333,3
0.167958656,0.20198133,0.240162358,0.25528106,0.188811189,0.392122746,0.456674473,0.454113924,0.189557417,0.204174688,0.251609977,0.188758934,0.199533528,0.258993625,0.319875776,0.39276181,0.353467169,0.380168964,0.324601729,0.554913295,0.502180809,0.396610169,0.257978723,0.257048093,0.253002772,0.265897178,0.218736726,0.331392994,0.307787613,0.359259413,0.332727491,0.303925448,0.486313634,0.454616324,0.353848447,0.278049286,0.29063512,0.278102043,0.290086976,0.051346274,0.18732587,0.140367493,0.167686664,0.183917031,0.430265041,0.204875335,0.427881183,0.218677487,0.286325464,0.232227184,0.191497637,0.127620407,0.072463768,0.22027972,0.065876153,0.092307692,0.283216783,0.108571429,0.288888889,0,0.104413859,0.579047619,0.617647059,0.534482759,0.291294643,    'ECG-80b71388-1eb0-4c87-b095-4830cf9fa1f2_qrs_manual.txt',7.833333333,3
0.194109772,0.099172797,0.154437086,0.190614573,0.059649123,0.156429598,0.247703117,0.278846154,0.274587459,0.299499476,0.381546667,0.185198629,0.155928571,0.186465698,0.231281456,0.271800493,0.257628185,0.254670353,0.242809995,0.36147521,0.524393214,0.468235581,0.37962963,0.347014925,0.279971228,0.236100533,0.223081916,0.21989773,0.219244468,0.232806261,0.176728701,0.167817804,0.23497528,0.290296009,0.500041211,0.430575753,0.398421594,0.306958056,0.257664962,0.21766452,0.080745537,0.152571211,0.136224094,0.068576322,0.26007334,0.27442625,0.304592441,0.20134956,0.21498929,0.202279981,0.160444674,0.101793563,0.112443778,0.071618037,0.072463768,0.107692308,0,0.122580645,0.171698113,0.041666667,0,0.130081301,0.179487179,0.274876847,0.400921659,    'ECG-80be2af6-af07-4290-8252-e9835ad3bd56_qrs_manual.txt',6.666666667,3
0.102880658,0.071424503,0.10522443,0.093117409,0.047619048,0.161562575,0.273531037,0.291666667,0.170957096,0.165207461,0.20021097,0.087817309,0.069513991,0.186465698,0.22008547,0.229370264,0.19338447,0.17786076,0.181657848,0.367318493,0.454134999,0.324425497,0.296089385,0.20087368,0.182783019,0.156953195,0.159537262,0.195951267,0.174665102,0.155735736,0.138664085,0.103612769,0.308190214,0.243869821,0.338738786,0.275007598,0.239710877,0.171844547,0.13798539,0.082952999,0.030466379,0.135383888,0.078115378,0.107877391,0.322795922,0.353105233,0.388328445,0.265616286,0.157716218,0.248258603,0.133209679,0.06844593,0.161030596,0,0.155279503,0.07977208,0.192307692,0.361904762,0.047272727,0,0.080174927,0.182857143,0.34375,0.405469679,0.358516484,    'ECG-81c17eba-6dcb-4a9b-b2f6-ec2840e2ca33_qrs_manual.txt',5.1,2
0.207907294,0.15945171,0.198998546,0.194282001,0.116465863,0.248181573,0.113799141,0.134615385,0.170957096,0.204174688,0.191625,0.178223336,0.146853637,0.179583878,0.242809995,0.19071161,0.196888673,0.13566814,0.191749951,0.512524085,0.480970467,0.290129611,0.253968254,0.116163862,0.148568803,0.145929102,0.209217189,0.275425793,0.239157047,0.241556606,0.205289464,0.2120632,0.195567266,0.210839416,0.336107875,0.274064138,0.206751983,0.220828046,0.203689976,0.227446786,0.265988782,0.319210303,0.269210407,0.311564719,0.416399892,0.052583896,0.162244308,0.292823788,0.317445698,0.457163248,0.342610511,0.253776104,0.824587706,0.770471464,0.833333333,0.861538462,0.859416446,0.870833333,0,0.088435374,0.293974733,0.64,0.766666667,0.890804598,0.857142857,    'ECG-81c1db93-9c5f-4cf0-bc90-5382d4c2dee7_qrs_manual.txt',4.433333333,2
0.359477124,0.21290172,0.398385762,0.250829777,0.167785235,0.295953263,0.085060315,0.134615385,0.222772277,0.299499476,0.34178117,0.174806385,0.247238095,0.374056727,0.296996165,0.328520696,0.374271801,0.434227672,0.385624555,0.504466632,0.502180809,0.415081287,0.462837838,0.37700387,0.279971228,0.352878402,0.389766904,0.362680451,0.383977919,0.334569131,0.368651681,0.361953439,0.154242566,0.223795325,0.426003045,0.433199277,0.387204898,0.300926491,0.363672711,0.170675809,0.22942907,0.334023879,0.094929495,0.11094287,0.188640037,0.009998158,0.147831587,0.21144548,0.132967207,0.12248992,0.177893951,0.084709792,0.09057971,0.237362637,0.341614907,0.253393665,0.148351648,0.133333333,0.026,0,0.024943311,0,0.102564103,0.377281947,0.201388889,    'ECG-82564f70-84a3-469f-93b6-7a7c6f66de10_qrs_manual.txt',7.5,3
0.222222222,0.181442318,0.240162358,0.269005848,0.223880597,0.268,0.165607226,0.207474227,0.183252224,0.243307171,0.317234568,0.14601259,0.155928571,0.250690102,0.258724814,0.318582541,0.323911383,0.515707464,0.324601729,0.520716957,0.516873389,0.350783094,0.287292818,0.257048093,0.283992285,0.26980198,0.244740146,0.288829893,0.303822364,0.361440389,0.485607797,0.298546673,0.265580838,0.257909188,0.330961887,0.293190588,0.318186228,0.275584005,0.267544103,0.154848877,0.189972743,0.216002906,0.183219384,0.103331855,0.231962621,0.069216346,0.197293329,0.269834396,0.313701963,0.294264041,0.124135864,0.078568106,0.362318841,0.324519231,0.494071146,0.380090498,0.051923077,0.325714286,0,0.04248366,0.160349854,0.681481481,0.571428571,0.5830721,0.420758929,    'ECG-82cb6636-5037-478b-ad02-23aec998f260_qrs_manual.txt',6.4,3
0.237084218,0.165533362,0.230606994,0.229446164,0.116465863,0.205363985,0.211021974,0.266304348,0.189557417,0.253848673,0.28852381,0.1714353,0.135260907,0.332215599,0.283840388,0.39276181,0.407282619,0.315892974,0.306001188,0.041857684,0.539793814,0.475313191,0.489583333,0.337489025,0.260504202,0.236100533,0.299053205,0.311516832,0.327556975,0.347119626,0.283507433,0.255597591,0.171100038,0.295091458,0.422364842,0.435883578,0.34725188,0.302241198,0.236094769,0.058021572,0.137167713,0.096145966,0.05694402,0.120919911,0.175663389,0.482282313,0.278567861,0.109508286,0.03421625,0.121492732,0.177681276,0.089269938,0.065876153,0.097355769,0.031969309,0.031674208,0.162259615,0.18627451,0.104,0,0,0,0.222222222,0.213793103,0.517857143,    'ECG-82d2637b-c489-49d9-b15b-fd7caba71898_qrs_manual.txt',7.833333333,3
0.302681992,0.224293493,0.230606994,0.237829674,0.196217494,0.248181573,0.273531037,0.318181818,0.274587459,0.337905695,0.388548387,0.244354476,0.265081788,0.29401283,0.262804501,0.258643042,0.274331551,0.228934299,0.202126338,0.504466632,0.580541237,0.361799218,0.17535545,0.099420254,0.140580461,0.11509901,0.316922146,0.309958667,0.259608549,0.307518032,0.297576477,0.254742019,0.41617053,0.387705312,0.471261463,0.387572591,0.288722203,0.282001362,0.22437237,0.171339578,0.269804427,0.360868867,0.228490923,0.334000035,0.356335132,0.118895013,0.187001961,0.340003882,0.54210111,0.760328001,0.510207828,0.43751757,0.230566535,0.409090909,0.398550725,0.587412587,0.292067308,0.575757576,0,0,0.18707483,0.505263158,0.606060606,0.712643678,0.714285714,    'ECG-839c3782-456b-46f9-876c-60cf02b1a5cf_qrs_manual.txt',7.266666667,3
0.252525253,0.191503658,0.230606994,0.225336067,0.148387097,0.310634599,0.286885246,0.345930233,0.282559025,0.311871227,0.34178117,0.199742856,0.175139147,0.271778414,0.279546015,0.276272307,0.348407347,0.363318232,0.310576321,0.496541268,0.653304492,0.482494123,0.390625,0.347014925,0.326759606,0.208652392,0.279739078,0.337472704,0.277244655,0.314929399,0.340246708,0.302492079,0.301191731,0.421770516,0.453157461,0.451846625,0.419189506,0.342648634,0.248307436,0.144155889,0.276355679,0.255472663,0.108137323,0.117666116,0.291645681,0.212903541,0.153252619,0.177191553,0.18595479,0.214498641,0.123889573,0.203359729,0.373641304,0.157342657,0.561009818,0.190045249,0.274886878,0.217142857,0.023214286,0.037356322,0.07164568,0.101587302,0.125,0.386015326,0.56797235,    'ECG-83abffc8-2eb4-4a32-bbc4-1faba32b79f7_qrs_manual.txt',7.833333333,3
0.207907294,0.075448895,0.071390728,0.062078273,0.013953488,0.172046955,0.176609768,0.278846154,0.183252224,0.324665944,0.348153846,0.055706276,0.031508678,0.2345863,0.118077601,0.138764045,0.051147463,0.13566814,0.118077601,0.43752779,0.226215823,0.340042373,0.116883117,0.079265029,0.090073529,0.085053084,0.223406322,0.134282477,0.104546561,0.045963317,0.084910149,0.098961795,0.235761443,0.229341386,0.387107422,0.368792922,0.229775343,0.0819685,0.065095946,0.179407295,0.255706803,0.225298634,0.276708405,0.10313913,0.568354521,0.141543138,0.551106944,0.169875073,0.606442579,0.816897094,0.187834199,0.135178026,0.621118012,0.415384615,0.347826087,0.468227425,0.173076923,0.497619048,0,0.361111111,0.174603175,0.477192982,0.516129032,0.356321839,0.675465839,    'ECG-8457a7e5-3a8c-4a99-99ec-9099773c060a_qrs_manual.txt',4,2
0.279642058,0.191503658,0.275639878,0.246438243,0.178082192,0.268,0.273531037,0.266304348,0.266766299,0.233082707,0.283026005,0.168109162,0.199533528,0.374056727,0.344033579,0.422114402,0.442665471,0.415593799,0.349028001,0.504466632,0.653304492,0.415081287,0.323699422,0.28885957,0.260504202,0.258211535,0.334369657,0.37369954,0.371336907,0.377663551,0.390895146,0.302008053,0.316143679,0.377807748,0.426187987,0.36416126,0.317966079,0.280009915,0.30848825,0.060442176,0.114673211,0.143978222,0.036965469,0.104340749,0.208886281,0.187308572,0.111182936,0.255212036,0.199093962,0.204943972,0.20377974,0.114403997,0.031969309,0.089010989,0.030193237,0,0.028846154,0.07037037,0.023214286,0,0.122005324,0.164102564,0.371428571,0.518286311,0.152310924,    'ECG-84711af8-331f-49ea-9341-042352774cbd_qrs_manual.txt',7.866666667,3
0.247311828,0.224293493,0.377584551,0.353070175,0.232323232,0.401101533,0.389597248,0.390060241,0.324832483,0.337905695,0.457043478,0.257862504,0.288979592,0.2345863,0.109891785,0.550704931,0.418801013,0.06013319,0.385624555,0.582163501,0.796626054,0.595287309,0.61328125,0.544941957,0.45282274,0.427295671,0.264563429,0.410015801,0.492503302,0.500999903,0.39266332,0.483818026,0.432881538,0.572693619,0.633199432,0.579618883,0.558003641,0.481558088,0.478199163,0.176736815,0.431985613,0.133314023,0.150412904,0.423266017,0.18445344,0.182746385,0.068651374,0.137619767,0.036389887,0.058257916,0.072861654,0.051305035,0.543478261,0.288461538,0.108695652,0.026923077,0.474725275,0.088372093,0.021666667,0,0,0,0.065217391,0.024859663,0.025892857,    'ECG-848283ee-8e12-49f8-9aad-66ff1fadb730_qrs_manual.txt',11.93333333,5
0.237084218,0.232165181,0.265165563,0.330143541,0.148387097,0.333605826,0.260473588,0.266304348,0.282559025,0.835814889,0.209017094,0.14601259,0.087004608,0.207916833,0.175081999,0.318582541,0.368983957,0.286647399,0.279546015,0.355713651,0.704306773,0.390616231,0.333333333,0.182004669,0.170955882,0.159772142,0.204680588,0.29531667,0.323939956,0.410212166,0.288089939,0.34085706,0.243856432,0.404244934,0.524345324,0.543352313,0.249279531,0.198407781,0.153097219,0.221731796,0.389041899,0.267359491,0.213845966,0.228029299,0.396206587,0.278542106,0.060676124,0.253804024,0.550647684,0.26567626,0.271036202,0.101556222,0.374812594,0.401985112,0.255754476,0.239316239,0.227163462,0.171171171,0.196226415,0,0.112244898,0.363636364,0.5625,0.677011494,0.383597884,    'ECG-8492c468-ae65-4ec8-a488-f81ed8fb6bf3_qrs_manual.txt',8.633333333,3
0.346215781,0.224293493,0.357714738,0.269005848,0.185185185,0.274819244,0.286885246,0.345930233,0.25909133,0.373111396,0.388548387,0.235690236,0.320285714,0.347452541,0.36957976,0.506858758,0.455031599,0.501294372,0.349028001,0.529048692,0.555695248,0.622881356,0.547794118,0.48857113,0.423319328,0.404679321,0.335657523,0.389250766,0.42756061,0.39711884,0.432962942,0.288574821,0.337489728,0.386033823,0.554239209,0.592962557,0.492683903,0.417838382,0.446800793,0.167484458,0.139917699,0.137564296,0.067760889,0.079643897,0.226418741,0.139006526,0.276986349,0.052176028,0.088592314,0.087679842,0.085109263,0.11212861,0.063938619,0.086538462,0,0,0,0,0,0.038690476,0,0,0.045454545,0,0.077678571,    'ECG-84a73198-79b1-4c6f-b2e7-7c7c28030122_qrs_manual.txt',10.43333333,4
0.308641975,0.284685083,0.326504359,0.308565531,0.232323232,0.448610646,0.474547023,0.506578947,0.282559025,0.287530058,0.381546667,0.219126247,0.247238095,0.29401283,0.301474727,0.535721857,0.396027502,0.447013487,0.33909465,0.707514451,0.715084614,0.543949547,0.309659091,0.234902411,0.326759606,0.39379787,0.357741919,0.455386923,0.463438803,0.422521231,0.488009046,0.424174842,0.620267477,0.537817352,0.508505813,0.389049207,0.384643674,0.363779029,0.407445582,0.174191448,0.303356139,0.090584116,0.154635772,0.136715107,0.373541983,0.080186937,0.202929285,0.165181937,0.296861492,0.304339426,0.134245411,0.071199424,0.217391304,0.23964497,0.08361204,0.232848233,0.106508876,0.292307692,0,0,0,0.328205128,0.282051282,0.288909599,0.055984556,    'ECG-85ddc3d4-5789-41d1-9bc0-f6c43d6bea35_qrs_manual.txt',10.4,4
0.207907294,0.128575632,0.260032455,0.250829777,0.116465863,0.177401478,0.222986074,0.278846154,0.183252224,0.23815621,0.251609977,0.120341013,0.242941176,0.15015015,0.209207854,0.245859737,0.222339384,0.237350355,0.048803601,0.430657901,0.42882211,0.262904468,0.195121951,0.16708126,0.173871409,0.140563393,0.147940595,0.221774261,0.216351599,0.22077059,0.193776528,0.202271024,0.27331176,0.266177407,0.307214008,0.294063533,0.221365686,0.197399682,0.189662313,0.252699793,0.216112543,0.31488625,0.268681018,0.1711652,0.491607728,0.156603825,0.321703065,0.364868821,0.408497412,0.379401816,0.269600604,0.360438721,0.322061192,0.537135279,0.374812594,0.557029178,0.25066313,0.531182796,0,0.12745098,0.492782479,0.740740741,0.580645161,0.700356718,0.591836735,    'ECG-8677adc8-cf3c-4fca-ae6e-f954ece097d4_qrs_manual.txt',5.4,3
0.432098765,0.320254705,0.483783325,0.417187035,0.310344828,0.4586714,0.405737705,0.471153846,0.324832483,0.373111396,0.457043478,0.292007797,0.342955665,0.527474196,0.515908289,0.513940907,0.613888785,0.65438343,0.508882582,0.719332049,0.673149016,0.55217161,0.517857143,0.508955224,0.458962639,0.451126321,0.493784247,0.557405523,0.541971149,0.617766884,0.621810989,0.572917854,0.559917814,0.507250036,0.570423751,0.577540991,0.545556563,0.490362238,0.530823095,0.056039797,0.126044212,0.211368055,0.0911202,0.096759148,0.155500063,0.058278237,0.185260312,0.158202861,0.109562869,0.109121266,0.11421069,0.084365875,0,0.096601073,0.077639752,0.167521368,0.023601399,0.027536232,0,0,0.022008804,0,0.088888889,0.149157979,0.096345515,    'ECG-87a1b271-bb0f-4679-904d-148a90120c87_qrs_manual.txt',13.06666667,5
0.308641975,0.228200817,0.23535405,0.259793319,0.161147903,0.295953263,0.222986074,0.345930233,0.25909133,0.351614109,0.374656085,0.185198629,0.580199336,0.29401283,0.349028001,0.398501873,0.390495868,0.368874089,0.329379615,0.496541268,0.480970467,0.543949547,0.4375,0.319094184,0.264314768,0.258211535,0.322325603,0.348574212,0.335454531,0.368767644,0.342122855,0.356303005,0.328124055,0.376835911,0.507648466,0.501327651,0.380595096,0.293908038,0.297460777,0.181739239,0.166722136,0.127680523,0.107621738,0.119083025,0.320395508,0.086753747,0.27730437,0.097538325,0.223402535,0.208487261,0.15952136,0.229749579,0.197628458,0.122171946,0.287723785,0.14957265,0.305429864,0.342342342,0,0.078787879,0,0.213333333,0.184210526,0.565922921,0.596320346,    'ECG-87c255b5-307a-4a7e-a9c5-db15d1b0b8a3_qrs_manual.txt',9.733333333,4
0.194109772,0.412755458,0.42018543,0.536705842,0.095785441,0.468931376,0.165607226,0.154411765,0.085614444,0.120070423,0.078576389,0.057691725,0.373590734,0.114427164,0.14992722,0.169123012,0.166452607,0.149251519,0.132185073,0.397823869,0.311808235,0.06436387,0.074596774,0.097107057,0.08354816,0.091704902,0.130134891,0.188018881,0.209378811,0.193392851,0.136904305,0.264681832,0.174650198,0.13620703,0.160195792,0.099401654,0.102245313,0.082731597,0.142411841,0.371800824,0.642117415,0.762824003,0.537362994,0.330565921,0.882991815,0.244439499,0.51555063,0.495336098,0.494233447,0.271173113,0.285864535,0.522901917,0.418060201,0.479289941,0.465838509,0.538461538,0.599112426,0.531182796,0.050980392,0.577777778,0.623582766,0.869135802,0.692307692,0.757183908,0.717032967,    'ECG-883d777f-f1fb-452b-b742-be3d5165e4dd_qrs_manual.txt',2.3,1
0.176470588,0.115831587,0.173977406,0.159526724,0.124744376,0.211206897,0.314525353,0.390060241,0.189557417,0.253848673,0.305498783,0.155236576,0.12967033,0.219120273,0.242809995,0.258643042,0.261742314,0.245927483,0.283840388,0.355713651,0.539793814,0.402684564,0.363636364,0.260876469,0.260504202,0.218688119,0.197002792,0.230919617,0.225080411,0.2286356,0.226617107,0.252644495,0.387396132,0.38738899,0.39845239,0.350521649,0.307951394,0.2613513,0.225768971,0.103852363,0.085317702,0.181917061,0.104371779,0.168029607,0.301012235,0.3581255,0.361270385,0.167764607,0.205135518,0.242203153,0.154767088,0.106046739,0.149925037,0.143236074,0.398550725,0.179487179,0.393899204,0.447058824,0.224137931,0.038690476,0.149659864,0.533333333,0.457142857,0.550679206,0.552380952,    'ECG-8898f7bc-3d3a-40a8-a8eb-341eebce2e0b_qrs_manual.txt',7.233333333,3
0.320813772,0.232165181,0.314639989,0.269005848,0.164444444,0.38330721,0.592505855,0.375,0.298971074,0.388106416,0.457043478,0.276898208,0.265081788,0.432316525,0.462192753,0.535721857,0.455031599,0.523049133,0.462192753,0.610913719,0.653304492,0.672070744,0.630952381,0.481965174,0.423319328,0.433135748,0.389326044,0.453937802,0.40426199,0.412372678,0.404022635,0.408843683,0.43459085,0.461444038,0.628630046,0.612640335,0.544396963,0.41999128,0.423352097,0.045142062,0.064913872,0.06921916,0.054911106,0.024334909,0.213856876,0.170667362,0.15127126,0.046072975,0.056028626,0.114634539,0.093544595,0.049884301,0.060386473,0.05465587,0.029377203,0.058212058,0,0.063333333,0.042622951,0,0,0,0.02173913,0.026724138,0.054511278,    'ECG-88e59059-4d3a-4e69-8b44-fbebb526fca9_qrs_manual.txt',10.66666667,4
0.291005291,0.205570902,0.270367572,0.308565531,0.232323232,0.4586714,0.511741249,0.454113924,0.298971074,0.41167002,0.335505051,0.227284629,0.265081788,0.276130682,0.262804501,0.294606742,0.282936315,0.380168964,0.329379615,0.546143113,0.289488218,0.187744459,0.201970443,0.260876469,0.191950464,0.311290504,0.281515706,0.311122398,0.342079352,0.364102087,0.463444232,0.421996656,0.528803048,0.457635769,0.413744459,0.432380151,0.400491889,0.352603705,0.399606464,0.172987851,0.263168053,0.253694271,0.208206036,0.170264421,0.392003941,0.11877391,0.438897332,0.634727613,0.600486507,0.278070509,0.340945256,0.163727161,0.169836957,0.283216783,0.383631714,0.338461538,0.05465587,0.227350427,0.12,0.112068966,0.357142857,0.416260163,0.307692308,0.564176245,0.381578947,    'ECG-898ffba5-2b7a-4ef4-a72e-d7a485ae7c7d_qrs_manual.txt',9.833333333,4
0.40913006,0.194948698,0.398385762,0.324627358,0.192488263,0.341529235,0.551001821,0.375,0.244163866,0.281690141,0.323233831,0.178223336,0.199533528,0.254820352,0.364353741,0.258643042,0.333552575,0.301047504,0.296996165,0.504466632,0.555695248,0.361799218,0.291666667,0.204126427,0.204591105,0.236100533,0.366731621,0.375580338,0.335530877,0.360644192,0.331221355,0.312275896,0.350304244,0.305316394,0.417430848,0.391211386,0.30263847,0.298507044,0.298271812,0.315480808,0.119702474,0.425531899,0.219677509,0.235897557,0.297545918,0.144748448,0.232039344,0.285194116,0.258508542,0.299892897,0.194660933,0.106351499,0.372670807,0.326373626,0.447570332,0.411764706,0.335972851,0.246296296,0.136842105,0.081761006,0.049886621,0.08,0.5,0.397044335,0.194196429,    'ECG-8abbdc28-1916-4a0f-86f1-89ed7a34da14_qrs_manual.txt',7.733333333,3
0.207907294,0.174953959,0.178024217,0.162819329,0.111111111,0.217137672,0,0.05420354,0.10005211,0.213529351,0.256666667,0.178223336,0.146853637,0.120124364,0.205650394,0.165633475,0.222339384,0.250277901,0.216424901,0.430657901,0.42882211,0.408841044,0.4375,0.337489025,0.288057531,0.202125091,0.196386916,0.265701132,0.216498771,0.201017139,0.205871443,0.22933647,0.069743441,0.08415282,0.306239804,0.372114023,0.353874768,0.310185752,0.247863057,0.325552028,0.324109747,0.378864856,0.173651037,0.172046037,0.391625112,0.033438273,0.170669789,0.047919146,0.052067482,0.083937694,0.125510788,0.132437415,0.388198758,0.301488834,0.562218891,0.482758621,0.537135279,0.35625,0,0,0,0,0.027027027,0.220081136,0.501152074,    'ECG-8acb0e72-7940-4ff1-abf3-993de7d56b7b_qrs_manual.txt',4.333333333,2
0.308641975,0.194948698,0.23535405,0.269005848,0.273712737,0.38330721,0.405737705,0.4375,0.333804809,0.419826652,0.440911681,0.302507682,0.293988571,0.246602214,0.296996165,0.354291179,0.323911383,0.368874089,0.283840388,0.397823869,0.715084614,0.55217161,0.296089385,0.310210312,0.253002772,0.26980198,0.271952534,0.336629148,0.311582491,0.30749386,0.45914527,0.336391145,0.42869995,0.494294785,0.646658353,0.570836843,0.424494987,0.43716731,0.382477402,0.232932802,0.193109935,0.174723877,0.168050565,0.262795932,0.439874996,0.253383993,0.179203438,0.143189429,0.346430074,0.272770133,0.293931708,0.186493955,0.475543478,0.42760181,0.395256917,0.336538462,0.355263158,0.281481481,0.063934426,0,0.083144369,0.408510638,0.55,0.614655172,0.546626984,    'ECG-8ad5d4bb-204f-4171-9957-b4184e545d98_qrs_manual.txt',10.83333333,4
0.139664804,0.075448895,0.158255309,0.159526724,0.04957265,0.141449683,0.300546448,0.106308411,0.215894156,0.243307171,0.236844444,0.074348032,0.140987013,0.153302178,0.191749951,0.205755249,0.186470348,0.189118432,0.165438398,0.307271068,0.480970467,0.46125908,0.2125,0.170010413,0.132800512,0.122508817,0.146708588,0.195602319,0.162060483,0.17510526,0.14139853,0.098416677,0.134327403,0.174475039,0.407043004,0.348517517,0.251228915,0.147043294,0.142235996,0.197874089,0.086208477,0.222517846,0.208792949,0.125085267,0.344282486,0.276562611,0.112766351,0.14679946,0.384119346,0.349724781,0.222671417,0.273485055,0.161030596,0.148351648,0.483091787,0.319088319,0.423076923,0.452380952,0.106122449,0,0,0.392982456,0.666666667,0.87100894,0.637362637,    'ECG-8b019b22-5159-4164-bfb4-e0199938d684_qrs_manual.txt',4.666666667,2
0.07295174,0.108530761,0.095612583,0.201754386,0.108481262,0.211206897,0.314525353,0.345930233,0.244163866,0.181924883,0.179141104,0.117659418,0.057314286,0.131818618,0.191749951,0.194422151,0.19338447,0.237350355,0.212799194,0.451589595,0.634156267,0.262904468,0.2125,0.170010413,0.132800512,0.120017771,0.099895246,0.195068223,0.152571656,0.166244376,0.193744487,0.160711636,0.378753977,0.398782469,0.373854699,0.256653699,0.188973645,0.150364435,0.09932082,0.098511083,0.183342877,0.200050369,0.226802209,0.156701158,0.393614038,0.180889194,0.187136509,0.329230776,0.301605952,0.247810635,0.285325944,0.116380656,0.130434783,0.407967033,0.161030596,0.358974359,0.358090186,0.084444444,0.067241379,0,0.102040816,0.501960784,0.733333333,0.752234994,0.455714286,    'ECG-8b4d27d7-2892-4b4a-8bd2-3d48ab480254_qrs_manual.txt',6.333333333,3
0.207907294,0.075448895,0.108496548,0.159526724,0.055555556,0.108766234,0.211021974,0.115566038,0.125618812,0.218309859,0.218051948,0.14601259,0.234534161,0.097905282,0.126470654,0.194422151,0.200424877,0.139020999,0.171838505,0.297274979,0.325869845,0.23747439,0.14479638,0.123648996,0.110632538,0.110262917,0.148687631,0.141296771,0.149617722,0.174726521,0.127261907,0.085937203,0.05066459,0.116005564,0.240815604,0.220076998,0.199046291,0.18376366,0.233479822,0.375501071,0.211069059,0.225025336,0.194944364,0.211855004,0.297175901,0.364053998,0.320744204,0.260955298,0.532177961,0.516071005,0.428049413,0.498542738,0.724637681,0.373846154,0.644122383,0.384615385,0.599112426,0.469135802,0.197826087,0.288888889,0.316588174,0.733333333,0.8,0.801724138,0.586904762,    'ECG-8b8e27f9-1b02-4043-ab0c-92e60b8dc5d7_qrs_manual.txt',2.533333333,1
0.416666667,0.244413293,0.297461369,0.303367909,0.2,0.438743369,0.531102627,0.488636364,0.222772277,0.318214371,0.348153846,0.192369034,0.192329818,0.347452541,0.344033579,0.40430607,0.401622718,0.403520166,0.349028001,0.572919331,0.580541237,0.361799218,0.328488372,0.26474579,0.256733746,0.211964513,0.444290848,0.438212483,0.38760311,0.420435292,0.419732439,0.40227715,0.507811103,0.465222616,0.405142399,0.411031614,0.388429638,0.323008062,0.274155821,0.132650813,0.164178373,0.191471836,0.172705811,0.166959445,0.329442385,0.157627251,0.31359127,0.227036781,0.295300879,0.236819623,0.202869893,0.176227965,0.19509476,0.218623482,0.332125604,0.378378378,0.168399168,0.233333333,0.2640625,0.036723164,0.174603175,0.208130081,0.315789474,0.504789272,0.323660714,    'ECG-8bb35463-870b-41d3-adfb-9499fd7940ee_qrs_manual.txt',10.73333333,4
0.151515152,0.153522099,0.125393551,0.308565531,0.174603175,0.366148399,0.286885246,0.291666667,0.222772277,0.103201024,0.20021097,0.188758934,0.165350318,0.179583878,0.212799194,0.258643042,0.278612313,0.357822114,0.306001188,0.610913719,0.502180809,0.229366249,0.205445545,0.178963672,0.234918968,0.218688119,0.192552821,0.262924858,0.213784509,0.313601629,0.345212148,0.325620818,0.417312827,0.278623644,0.332960572,0.16142304,0.191486926,0.261492443,0.214682249,0.144357792,0.282907906,0.142466292,0.269766636,0.144859052,0.409955014,0.058680281,0.283989723,0.604902455,0.225410958,0.258307255,0.239099891,0.141032755,0.155279503,0.167493797,0.074962519,0.228438228,0.183257919,0.316666667,0,0,0.273768044,0.568888889,0.5,0.334051724,0.448809524,    'ECG-8bb6ede4-adbb-4b3b-ba38-b91cac4f7392_qrs_manual.txt',5.166666667,2
0.44,0.294434712,0.450933173,0.410290432,0.259259259,0.349591652,0.211021974,0.254032258,0.282559025,0.318214371,0.425322129,0.286888019,0.288979592,0.357907519,0.334210296,0.550704931,0.333552575,0.415593799,0.508882582,0.43752779,0.624831914,0.595287309,0.510638298,0.469024739,0.26816609,0.451126321,0.481821364,0.500269045,0.568350644,0.513106301,0.535903135,0.518115043,0.286497801,0.365584039,0.597902765,0.517044074,0.496562588,0.473824916,0.454052994,0.204567831,0.311028498,0.192396525,0.262036533,0.175185493,0.135119743,0.151886744,0.114020986,0.08958061,0.110786209,0.108804108,0.197053106,0.044657689,0.135869565,0.181730769,0,0.161538462,0.101313321,0.028787879,0.047272727,0,0,0.023188406,0.023255814,0.15270936,0,    'ECG-8cff980e-32b5-4d71-8628-bbdb015f8548_qrs_manual.txt',10.66666667,4
0.308641975,0.224293493,0.297461369,0.201754386,0.148387097,0.281749369,0.456674473,0.278846154,0.202496771,0.243307171,0.311323529,0.207328874,0.206935961,0.363227258,0.349028001,0.422114402,0.265897178,0.326047688,0.275295914,0.430657901,0.340468842,0.309373086,0.353293413,0.28885957,0.221102941,0.246983292,0.359389781,0.413604808,0.35392313,0.276129303,0.290061067,0.290761656,0.359771536,0.224037808,0.329983548,0.370122137,0.35317677,0.314044103,0.295836177,0.09398508,0.149029604,0.16370988,0.155836355,0.150004627,0.267787837,0.194198718,0.479965921,0.349967129,0.189602642,0.214160511,0.263664274,0.161374461,0.062111801,0.201923077,0.186335404,0.336538462,0.389423077,0.325714286,0.224137931,0.176870748,0.328521653,0.328205128,0.486486486,0.549753695,0.659090909,    'ECG-8d0cdc31-cfeb-4f35-9f81-c2a767552661_qrs_manual.txt',6.833333333,3
0.308641975,0.726058932,0.357714738,0.390278976,0.299435028,0.38330721,0.439260193,0.421296296,0.371603118,0.463081519,0.527601246,0.324612701,0.331428571,0.29401283,0.431298082,0.440540365,0.528786721,0.494219653,0.431298082,0.641291308,0.715084614,0.703692494,0.6875,0.515945453,0.385093168,0.289973196,0.343751403,0.548379289,0.429476886,0.542679128,0.500791797,0.424382415,0.498274699,0.519257186,0.749137804,0.716431807,0.611731534,0.546104116,0.428259371,0.151354674,0.326012204,0.217192151,0.12910258,0.167649472,0.255285674,0.084151373,0.153449449,0.060539159,0.049959794,0.144551959,0.165983895,0.183927414,0.310559006,0.151969981,0.146886016,0.076923077,0.155769231,0.126666667,0.1015625,0,0,0,0.104166667,0.166283525,0.318681319,    'ECG-8d2a5701-bfcf-403b-b48b-cb657cd796ef_qrs_manual.txt',12.63333333,5
0.416666667,0.205570902,0.338715135,0.273708747,0.157894737,0.419567339,0.247703117,0.331896552,0.229774329,0.305633803,0.34178117,0.239989286,0.265081788,0.29401283,0.385624555,0.472712681,0.396027502,0.434227672,0.391098662,0.651802918,0.226215823,0.434322034,0.413461538,0.432246661,0.379901961,0.348037482,0.391615409,0.378053235,0.388477762,0.371990171,0.363838002,0.409148547,0.377630969,0.3191259,0.461043076,0.464387031,0.438193376,0.400368501,0.387384645,0.253607552,0.091568627,0.178722401,0.124020528,0.069124896,0.374193529,0.043628777,0.491138525,0.174089464,0.211312145,0.098341722,0.109368821,0.084616726,0.120772947,0,0.030193237,0.123076923,0.02967033,0.064957265,0,0.122641509,0.047763786,0.32248062,0.219512195,0.328912467,0.13996139,    'ECG-8decafbe-0947-42e6-817a-b0491e5243bd_qrs_manual.txt',8.4,3
0.432098765,0.261623459,0.427686392,0.37122807,0.273712737,0.392122746,0.300546448,0.64673913,0.307420841,0.419826652,0.433050847,0.313369631,0.361011378,0.438550694,0.468607825,0.381469884,0.424661843,0.434227672,0.468607825,0.620852066,0.693728522,0.569007264,0.658536585,0.356770365,0.242040631,0.348037482,0.475023561,0.486439728,0.449731301,0.477644147,0.531451961,0.566719587,0.390009155,0.503890908,0.619408733,0.658854222,0.52495968,0.496216011,0.513123387,0.133720993,0.125246563,0.331300057,0.172774755,0.157649487,0.161564819,0.10245273,0.146824599,0.103778364,0.099701556,0.200395394,0.290484456,0.166312536,0.081521739,0.133136095,0.30657748,0.24852071,0.126641651,0.112592593,0,0.106557377,0.020786092,0,0.136363636,0.323175621,0.246598639,    'ECG-8df186b7-973e-4723-b841-5c2cf6eebea5_qrs_manual.txt',12.5,5
0.394402036,0.188104861,0.357714738,0.293197021,0.151515152,0.401101533,0.389597248,0.488636364,0.266766299,0.351614109,0.410247934,0.231455833,0.256025779,0.317489392,0.275295914,0.472712681,0.358582594,0.368874089,0.334210296,0.572919331,0.673149016,0.586386003,0.555555556,0.502064147,0.227941176,0.320160464,0.319506877,0.346740147,0.435108228,0.371140273,0.326638457,0.392332229,0.417551158,0.514613966,0.549533355,0.57148049,0.505039742,0.397027762,0.362783919,0.220209566,0.179780926,0.204462686,0.151791706,0.149542742,0.340899539,0.190009866,0.2688719,0.094026504,0.06674948,0.072033285,0.198950059,0.104333325,0.159846547,0.305429864,0.143020595,0.215384615,0.472027972,0.194871795,0.021666667,0,0.088035214,0.044444444,0.069767442,0.356321839,0.172619048,    'ECG-8e783ecf-4569-40ac-8738-7ca5e3051815_qrs_manual.txt',11.5,5
0.07295174,0.059834254,0.054458947,0.111608809,0.100775194,0.131798195,0.104035309,0.16460396,0.153264107,0.130707814,0.187412008,0.018278254,0.01193426,0.048339639,0.069436784,0.090063202,0.085395035,0.057409354,0.044405252,0.3334513,0.307235353,0.229366249,0.101265823,0.062525212,0.058935361,0.059974963,0.055346309,0.074598209,0.065236239,0.078172106,0.085422928,0.045331148,0.105818315,0.110294663,0.196323404,0.147919974,0.109306122,0.039260501,0.034151001,0.336623825,0.274313541,0.279371697,0.283834364,0.472236541,0.741353475,0.169931935,0.471131297,0.452816619,0.58579387,0.727103775,0.214359185,0.133862007,0.850661626,0.586956522,0.815217391,0.852564103,0.735576923,0.76,0.054166667,0.34469697,0.54605626,0.924444444,0.8,0.604197901,0.641156463,    'ECG-8eb38715-693e-424b-970e-fd3f82c8dafc_qrs_manual.txt',2.366666667,1
0.333333333,0.205570902,0.291893126,0.330143541,0.178082192,0.303232759,0.328833173,0.345930233,0.290685379,0.358651911,0.388548387,0.203508772,0.238706986,0.215349,0.266925818,0.318582541,0.282936315,0.286647399,0.319875776,0.554913295,0.624831914,0.421407012,0.358433735,0.188173963,0.217734855,0.156953195,0.245740149,0.333001084,0.336600008,0.327229661,0.28715814,0.298361236,0.402348221,0.43284853,0.54083914,0.471467832,0.346207546,0.28339573,0.229314056,0.345800509,0.26432774,0.279535707,0.351914503,0.290817299,0.28354884,0.107019521,0.16243538,0.209155377,0.311459477,0.429125702,0.302243095,0.32643382,0.253623188,0.244343891,0.164690382,0.158371041,0.234491315,0.140740741,0.13220339,0,0.112244898,0.297674419,0.472222222,0.485893417,0.621428571,    'ECG-8ebe0821-596b-40fa-9e98-7fab85236361_qrs_manual.txt',9.4,4
0.432098765,0.266092766,0.405537884,0.313840156,0.25,0.32581786,0.358483113,0.345930233,0.307420841,0.403667287,0.425322129,0.313369631,0.269714286,0.374056727,0.488352917,0.479378322,0.521649129,0.569101419,0.468607825,0.53752285,0.624831914,0.586386003,0.571428571,0.495270128,0.440786911,0.415841584,0.468842708,0.501191496,0.470847869,0.470385905,0.507039626,0.433194228,0.347770926,0.392079205,0.57868972,0.579986046,0.526131481,0.465427778,0.441898701,0.119960621,0.089848279,0.167140292,0.075002613,0.114728593,0.162967375,0.14212836,0.14889721,0.118200248,0.128757952,0.100074507,0.1454202,0.065589103,0.05574136,0.126641651,0.1393534,0.027613412,0.051923077,0.030894309,0.250877193,0.038011696,0,0.044444444,0.022222222,0.104289319,0.103571429,    'ECG-8efb7ba9-7e56-4fdb-b9b7-14fab02e75f7_qrs_manual.txt',11.16666667,4
0.416666667,0.275242528,0.391344525,0.390278976,0.283746556,0.479396552,0.314525353,0.375,0.381560737,0.445265653,0.537169811,0.348325359,0.367244898,0.451260356,0.488352917,0.640449438,0.581468951,0.672881218,0.537558939,0.707514451,0.784278351,0.748587571,0.64,0.70998456,0.672426471,0.626138614,0.466149819,0.528959052,0.529115726,0.552449617,0.606482357,0.543612923,0.441598466,0.53682178,0.735198767,0.691630862,0.68007933,0.650951107,0.622109885,0.115615232,0.114758896,0.052695877,0.088717623,0.073009291,0.161821386,0.044287166,0.063829566,0.052833928,0.105486167,0,0.007680049,0.00844151,0.05574136,0,0,0,0.023601399,0.028148148,0,0,0,0,0,0,0,    'ECG-8efe3ca5-d659-4fd0-81d7-d5e8ccf01b3a_qrs_manual.txt',13.63333333,5
0.247311828,0.168633042,0.169977925,0.201754386,0.154684096,0.188343328,0.300546448,0.318181818,0.195971321,0.190636778,0.256666667,0.149047833,0.140987013,0.179583878,0.162281011,0.148627507,0.176328617,0.18533237,0.14992722,0.11389846,0.555695248,0.361799218,0.103813559,0.123648996,0.115413254,0.11509901,0.22921004,0.229332656,0.165890302,0.213693552,0.24162938,0.158914516,0.220027297,0.35645889,0.341705396,0.234140014,0.167640603,0.134501451,0.147675507,0.251834473,0.413257756,0.411057694,0.378736278,0.31565531,0.484934911,0.375149423,0.254933875,0.204719811,0.561446637,0.601145142,0.47682239,0.383375192,0.543478261,0.50132626,0.563607085,0.482758621,0.623076923,0.76,0.175,0,0.133624879,0.711111111,0.857142857,0.673052363,0.438186813,    'ECG-8fe5ba70-125e-49a8-8fc5-d17b9b05a06d_qrs_manual.txt',6.233333333,3
0.232067511,0.150612539,0.230606994,0.28331467,0.215686275,0.281749369,0.456674473,0.583333333,0.266766299,0.318214371,0.348153846,0.196029981,0.230421377,0.242556039,0.254686129,0.313689521,0.274331551,0.331204794,0.288179728,0.512524085,0.60666138,0.595287309,0.469387755,0.314626866,0.238461538,0.273748997,0.228585266,0.262426577,0.303975472,0.293332928,0.37666602,0.298586894,0.253551916,0.394512577,0.560271586,0.500340947,0.403029827,0.307670362,0.31987531,0.156747457,0.164083105,0.213076001,0.254417367,0.242341667,0.301903488,0.189521497,0.168471134,0.088717265,0.159503364,0.215073419,0.201823738,0.152534593,0.434782609,0.602977667,0.428194993,0.403846154,0.089010989,0.325714286,0.192592593,0.19005848,0,0.165925926,0.461538462,0.660243408,0.517857143,    'ECG-902be225-672c-4873-a5a0-6988b0242931_qrs_manual.txt',8.933333333,3
0.227113906,0.216645116,0.338715135,0.28331467,0.127572016,0.281749369,0.358483113,0.4375,0.215894156,0.248537378,0.323233831,0.219126247,0.279196429,0.207916833,0.271089404,0.304051753,0.265897178,0.277284954,0.271089404,0.473526012,0.532032401,0.23747439,0.2125,0.217462687,0.234918968,0.236100533,0.218598612,0.353037314,0.304075358,0.281588269,0.246030727,0.251674881,0.297406059,0.360140859,0.336819596,0.276168887,0.27447859,0.282814582,0.273155668,0.186027774,0.21623883,0.371439247,0.255001212,0.183653493,0.301118839,0.191359544,0.219754175,0.526388571,0.483665182,0.358035673,0.282814173,0.239854258,0.326086957,0.244343891,0.362318841,0.451612903,0.535980149,0.345454545,0.069642857,0.157575758,0.507774538,0.579047619,0.636363636,0.712643678,0.601382488,    'ECG-903d2e61-1b74-4f12-be0e-a3215eb0fcbf_qrs_manual.txt',6.4,3
0.222222222,0.139326971,0.55671669,0.18699187,0.384615385,0.318161894,0.300546448,0.278846154,0.371603118,0.358651911,0.204585987,0.120341013,0.12692437,0.120124364,0.156049693,0.113628126,0.261742314,0.103626701,0.231281456,0.317533719,0.435014728,0.122979898,0.09623431,0.150060508,0.122737557,0.148648049,0.182808802,0.199129044,0.250387244,0.237226681,0.267740041,0.22397267,0.170427147,0.201482886,0.289535384,0.203346472,0.184644086,0.154237395,0.164978696,0.321202427,0.279726923,0.581814287,0.156085411,0.415150912,0.42299451,0.243953404,0.252323992,0.850139149,0.623091919,0.35225555,0.344870322,0.188885989,0.815217391,0.556318681,0.652173913,0.538461538,0.736972705,0.7125,0.152941176,0.315972222,0.575614861,0.688172043,0.666666667,0.87100894,0.767195767,    'ECG-905028f0-862a-446c-8541-eb351b46deac_qrs_manual.txt',3.566666667,2
0.508072175,0.309668508,0.475361993,0.438596491,0.273712737,0.490073145,0.358483113,0.4375,0.324832483,0.344699778,0.457043478,0.292007797,0.293988571,0.574166469,0.515908289,0.558340536,0.448811288,0.65438343,0.53024453,0.731390822,0.726067747,0.512297693,0.266129032,0.347014925,0.484375,0.482776403,0.558450295,0.575979818,0.546930521,0.518553587,0.564870897,0.545937095,0.477175197,0.53354851,0.595158725,0.512473227,0.486053531,0.508901308,0.50273584,0.061225983,0.103418837,0.174655551,0.193175829,0.070170001,0.207571457,0.032315813,0.168885605,0.224112445,0.360019055,0.197204661,0.067638277,0.042961082,0.101112235,0.048300537,0.103519669,0.157598499,0.123626374,0.056296296,0,0,0.043171115,0.142222222,0.255813953,0.174017642,0.138095238,    'ECG-90f1b854-f3ce-4e8d-a7c2-4097047f54a3_qrs_manual.txt',11.73333333,5
0.268579838,0.188104861,0.221292015,0.273708747,0.133333333,0.235477454,0.040614385,0.154411765,0.164961951,0.233082707,0.294100719,0.174806385,0.210714286,0.028439677,0.146905912,0.209601634,0.2261124,0.129046243,0.171838505,0.404196104,0.360824742,0.373101475,0.2125,0.106475988,0.127725659,0.112670761,0.10605621,0.229756199,0.230869281,0.303627849,0.212524177,0.199087343,0.098811351,0.123659982,0.347272654,0.322752737,0.320375235,0.208722673,0.227177393,0.502849881,0.432679,0.374391538,0.374586156,0.372316124,0.498026377,0.112694941,0.406695677,0.163683567,0.40265209,0.524140967,0.361400646,0.33728178,0.869565217,0.667582418,0.434782609,0.504807692,0.537135279,0.735483871,0.027083333,0.240740741,0.078310394,0.49009009,0.6,0.712643678,0.69047619,    'ECG-919d4e53-1b76-414e-af14-3626941976f1_qrs_manual.txt',4.233333333,2
0.333333333,0.228200817,0.308833131,0.298245614,0.211678832,0.468931376,0.551001821,0.506578947,0.25909133,0.351614109,0.417722222,0.248787343,0.234534161,0.332215599,0.354078857,0.40430607,0.348407347,0.397584525,0.310576321,0.601156069,0.58910162,0.475313191,0.462837838,0.426397425,0.37477445,0.362736274,0.363907499,0.373484932,0.356693279,0.377063203,0.354237255,0.41871755,0.511994118,0.476197346,0.4659902,0.491717118,0.45133709,0.404154788,0.368563988,0.160325194,0.148939371,0.208785244,0.173824632,0.148611182,0.385566815,0.145234609,0.358947187,0.192389448,0.169401223,0.137946345,0.115089278,0.086371729,0.217391304,0.326373626,0.279503106,0.215384615,0.207692308,0.227350427,0.24375,0.036723164,0.116921769,0.290909091,0.317073171,0.301503095,0.258928571,    'ECG-91c2804c-7ff0-44a0-a968-806b8890a7ee_qrs_manual.txt',10.33333333,4
0.387205387,0.252887996,0.286401161,0.288220551,0.157894737,0.429064039,0.260473588,0.318181818,0.244163866,0.243307171,0.402896175,0.158391622,0.238706986,0.332215599,0.391098662,0.43432778,0.467701191,0.385910005,0.310576321,0.601156069,0.58910162,0.427819988,0.425324675,0.2766061,0.253002772,0.198908969,0.353581099,0.428839856,0.365548433,0.419454365,0.353553192,0.40411904,0.39635267,0.416727566,0.411094582,0.399063739,0.341333173,0.269424422,0.293634318,0.164060663,0.149491833,0.135844475,0.096695513,0.123701088,0.355014067,0.022190951,0.144794712,0.231447103,0.101265374,0.326038995,0.181409308,0.230384104,0.186335404,0.163967611,0.186335404,0.145530146,0.244343891,0.324786325,0.021666667,0,0.074829932,0.16,0.513513514,0.647857889,0.420758929,    'ECG-91ce7fc7-da8d-4927-8b90-cfc1b0248b77_qrs_manual.txt',8.866666667,3
0.44,0.275242528,0.443057214,0.383825417,0.268817204,0.349591652,0.314525353,0.318181818,0.342962131,0.358651911,0.417722222,0.292007797,0.331428571,0.464302297,0.552490421,0.704955137,0.630788486,0.682326897,0.567839568,0.582163501,0.653304492,0.632388549,0.571428571,0.523036989,0.525255754,0.516703469,0.506412043,0.554843011,0.568135904,0.571472622,0.584814271,0.505180792,0.395531768,0.37663459,0.604623754,0.593218952,0.512409028,0.51353811,0.52467991,0.100327404,0.050987916,0.069155524,0.059588567,0.062125156,0.083182241,0.065148716,0.147187614,0.095699033,0.051383985,0.069257423,0.061059376,0.050488404,0,0,0,0,0.024150268,0,0.065,0,0,0.022222222,0.022222222,0.07457899,0,    'ECG-91fe9c0f-20e5-4291-bd12-141895690334_qrs_manual.txt',11.33333333,4
0.432098765,0.279926335,0.412803532,0.377475948,0.254593176,0.429064039,0.314525353,0.318181818,0.316039604,0.324665944,0.410247934,0.253289474,0.288979592,0.303248664,0.425345206,0.486124272,0.55828877,0.593499981,0.126470654,0.620852066,0.704306773,0.622881356,0.563432836,0.432246661,0.434887771,0.451126321,0.422191669,0.509777358,0.508813926,0.558938823,0.534158564,0.483252327,0.357771743,0.439470292,0.624374402,0.540826929,0.465227494,0.450901442,0.447131065,0.178242817,0.127131966,0.173428155,0.096200618,0.094027244,0.320296786,0.079023518,0.092049086,0.090094824,0.059010347,0.142666798,0.080783568,0.064623868,0.117508813,0,0.027173913,0,0,0.150793651,0,0,0,0,0.095238095,0,0.026556777,    'ECG-921e54b0-5c92-401b-9320-3620167db5e4_qrs_manual.txt',11.33333333,4
0.49905838,0.314917127,0.458940397,0.341430499,0.283746556,0.374650513,0.439260193,0.583333333,0.324832483,0.403667287,0.374656085,0.253289474,0.260519481,0.505557414,0.523028302,0.566074665,0.507646718,0.585260116,0.591685563,0.53752285,0.624831914,0.475313191,0.333333333,0.257048093,0.326759606,0.352878402,0.530668341,0.596906928,0.512537876,0.491631466,0.552414506,0.531962726,0.532471978,0.538335338,0.561405814,0.543802158,0.400883656,0.414378627,0.397756359,0.095260688,0.11158149,0.201688302,0.07746646,0.129602748,0.075782814,0.144700906,0.229859665,0.236693263,0.34973715,0.30478827,0.20700333,0.124282829,0.025879917,0,0.053022269,0.080769231,0.02532833,0,0.0609375,0.034391534,0.176070428,0.284444444,0.461538462,0.383731211,0.251930502,    'ECG-921f81e2-a70c-4068-9060-b51309686599_qrs_manual.txt',12.43333333,5
0.203252033,0.123388582,0.203347824,0.156272183,0.142250531,0.295953263,0.389597248,0.421296296,0.183252224,0.243307171,0.251609977,0.168109162,0.175139147,0.022099004,0.044405252,0.078824546,0.080275845,0.100564106,0.062401551,0.496541268,0.597807094,0.402684564,0.185096154,0.260876469,0.159558824,0.100830538,0.113802361,0.15668519,0.169763589,0.119679776,0.213673154,0.153864735,0.410705688,0.435454518,0.391501225,0.375918343,0.303886028,0.271030534,0.259720717,0.604505293,0.461220335,0.640391825,0.432632895,0.404997441,0.719605756,0.231824084,0.266778857,0.159308067,0.331662001,0.247819858,0.335485975,0.293875823,1,0.798816568,0.885668277,0.818461538,0.75198939,0.829885057,0,0,0.124716553,0.218803419,0.742857143,0.734913793,0.744419643,    'ECG-923e5f42-c71e-438e-9fbb-c730124a0711_qrs_manual.txt',7.766666667,3
0.203252033,0.270631906,0.475361993,0.179877404,0.116465863,0.303232759,0.439260193,0.488636364,0.25909133,0.213529351,0.236844444,0.219126247,0.256025779,0.166200801,0.231281456,0.245859737,0.222339384,0.250277901,0.227513228,0.554913295,0.141202912,0.125930619,0.130530973,0.131330248,0.132800512,0.120017771,0.196715921,0.377467365,0.404206797,0.225884359,0.251461324,0.2558255,0.544176569,0.258067209,0.230394796,0.171724536,0.186493975,0.203369071,0.204762547,0.244018325,0.412908477,0.550487794,0.173874036,0.179181839,0.379517899,0.154517508,1,0.912019301,0.474850983,0.430625415,0.354778627,0.442273969,0.582298137,0.652747253,0.513285024,0.78974359,0.623076923,0.894117647,0,0.902777778,0.685941043,0.791397849,0.827586207,0.81954023,0.739795918,    'ECG-924009ee-b850-4e05-89c3-cd825b42d112_qrs_manual.txt',4.833333333,2
0.333333333,0.309668508,0.42018543,0.278477885,0.2,0.410248147,0.492896175,0.563356164,0.316039604,0.403667287,0.381546667,0.215136381,0.242941176,0.363227258,0.455858374,0.550704931,0.348407347,0.501294372,0.374866196,0.630976176,0.737262094,0.682426405,0.532608696,0.3875,0.354878478,0.324672352,0.384715942,0.520504173,0.495518348,0.40650359,0.443417078,0.389788363,0.546743462,0.593024365,0.644094513,0.58249701,0.462410909,0.395847207,0.398330075,0.102334371,0.21744648,0.140453866,0.130301665,0.091553297,0.320221113,0.168918174,0.213450387,0.048628991,0.200018912,0.124343608,0.121152588,0.104512495,0.18115942,0.075984991,0.027173913,0.261954262,0.109311741,0.166666667,0.1,0,0,0.022695035,0.095238095,0.219274978,0.223938224,    'ECG-92c3b9fa-41c7-496c-9869-d576b07dcc76_qrs_manual.txt',13.26666667,5
0.352798054,0.270631906,0.384411615,0.28331467,0.148387097,0.217137672,0.247703117,0.304775281,0.195971321,0.337905695,0.410247934,0.292007797,0.218430584,0.347452541,0.359187109,0.318582541,0.274331551,0.272672912,0.279546015,0.397823869,0.502180809,0.475313191,0.431372549,0.3875,0.369709469,0.273748997,0.38422076,0.444161464,0.353197983,0.322614146,0.252703852,0.223013474,0.345180267,0.299320197,0.425847927,0.462809317,0.464959417,0.464220859,0.314112761,0.129825924,0.218506912,0.38695539,0.26184416,0.188129043,0.238619945,0.145150818,0.302300505,0.085705013,0.149055633,0.148378493,0.147965364,0.14186584,0.030193237,0.163967611,0.319693095,0.163170163,0.334987593,0.23030303,0.045614035,0,0.04880213,0.124031008,0.19047619,0.1272578,0.470779221,    'ECG-92e40434-5193-4e9d-8572-c9b169a43b6d_qrs_manual.txt',8.033333333,3
0.387205387,0.205570902,0.357714738,0.28331467,0.196217494,0.490073145,0.511741249,0.525,0.342962131,0.337905695,0.348153846,0.211204339,0.242941176,0.457738982,0.374866196,0.513940907,0.407282619,0.440583412,0.501949318,0.610913719,0.748673806,0.595287309,0.510638298,0.456434046,0.423319328,0.427295671,0.441050871,0.423472874,0.425552549,0.406640086,0.437262323,0.481967517,0.465072661,0.553295446,0.579527712,0.532686664,0.436632121,0.406122026,0.410871067,0.090180867,0.085968205,0.111424015,0.115207907,0.093123937,0.221850842,0.177447777,0.123029469,0.153685403,0.181985641,0.053796832,0.03864349,0.030257334,0,0.084199584,0.028604119,0.11965812,0.05465587,0.03015873,0.293548387,0.033854167,0,0.023188406,0,0.027409372,0,    'ECG-931d8e9e-cd15-4cb2-8581-57b624858b35_qrs_manual.txt',12.03333333,5
0.274074074,0.244413293,0.291893126,0.324627358,0.157894737,0.281749369,0.286885246,0.254032258,0.298971074,0.358651911,0.395663957,0.253289474,0.230421377,0.179583878,0.212799194,0.217400268,0.218601629,0.263583815,0.175081999,0.529048692,0.60666138,0.569007264,0.476027397,0.3875,0.17978459,0.132690562,0.240586886,0.314611913,0.266535977,0.346620561,0.294511596,0.299396249,0.302749686,0.394895321,0.58460812,0.532896855,0.460214553,0.386468337,0.268134972,0.269039245,0.431562055,0.47257235,0.366023754,0.277538803,0.379244099,0.114840115,0.103111102,0.117772402,0.197964737,0.177081237,0.358800829,0.405266791,0.525946704,0.454326923,0.771388499,0.570135747,0.584134615,0.434285714,0.023214286,0.038011696,0,0.092753623,0.214285714,0.491146319,0.668202765,    'ECG-9320eaea-b949-401b-b42c-3fde3cd83f15_qrs_manual.txt',9.3,3
0.42432196,0.284685083,0.370860927,0.33574394,0.264,0.490073145,0.511741249,0.421296296,0.333804809,0.419826652,0.482321429,0.33625731,0.743561644,0.322342973,0.292564745,0.466125922,0.514603044,0.601849711,0.537558939,0.662516674,0.532032401,0.569007264,0.571428571,0.26474579,0.390349265,0.421531439,0.404325923,0.45231339,0.428727624,0.507844129,0.541926521,0.541812855,0.558025902,0.457935852,0.646122541,0.591566407,0.535245928,0.504972532,0.494205448,0.217446014,0.291733002,0.162708663,0.072199782,0.076193773,0.227515723,0.110529882,0.26573492,0.113576289,0.148661906,0.266443036,0.195920488,0.155997751,0.205640423,0.327935223,0.235017626,0.07879925,0.02532833,0,0.06,0.073446328,0.040816327,0.044444444,0.222222222,0.124298316,0.12329932,    'ECG-935af3b5-268b-4d78-960b-e82b93a7b9ae_qrs_manual.txt',11.96666667,5
0.291005291,0.205570902,0.280983917,0.308565531,0.174603175,0.349591652,0.358483113,0.278846154,0.222772277,0.324665944,0.402896175,0.207328874,0.288979592,0.307943121,0.354078857,0.398501873,0.368983957,0.447013487,0.374866196,0.582163501,0.563841474,0.434322034,0.363636364,0.403745603,0.317815126,0.324672352,0.310422139,0.373848095,0.346143086,0.372466123,0.375006745,0.405280036,0.319921726,0.333543788,0.405545152,0.463433256,0.433296392,0.345598436,0.383923298,0.127655391,0.142139428,0.168918458,0.160557911,0.098152459,0.289001315,0.132344886,0.126814114,0.187241188,0.267087257,0.147651459,0.16268197,0.156367704,0.395256917,0.490384615,0.319693095,0.246153846,0.230769231,0.227350427,0.023214286,0,0.249433107,0.297674419,0.292682927,0.415708812,0.489087302,    'ECG-936e1e2c-79ed-4360-b69f-eec83bceaafa_qrs_manual.txt',8.3,3
0.40913006,0.270631906,0.326504359,0.233610342,0.223880597,0.429064039,0.439260193,0.375,0.282559025,0.318214371,0.354625323,0.199742856,0.265081788,0.303248664,0.385624555,0.472712681,0.407282619,0.440583412,0.344033579,0.662516674,0.60666138,0.454381536,0.469387755,0.310210312,0.245656812,0.246983292,0.38867311,0.41825835,0.432579819,0.355478301,0.458212234,0.499471776,0.471672853,0.437003745,0.50216197,0.489209618,0.370633613,0.281643468,0.292504731,0.233832677,0.160500281,0.15941953,0.065815594,0.142354304,0.271811476,0.068433639,0.244696592,0.250736217,0.164443073,0.239086498,0.258759166,0.200118095,0.241545894,0.14033264,0.114416476,0.158371041,0,0.150793651,0.103174603,0,0.091628488,0.242424242,0.513513514,0.69168357,0.712053571,    'ECG-93a6eab4-92a1-446a-86ad-86a81ea2ea1c_qrs_manual.txt',10.33333333,4
0.268579838,0.133886922,0.260032455,0.169521437,0.142250531,0.366148399,0.358483113,0.375,0.307420841,0.403667287,0.374656085,0.178223336,0.155928571,0.179583878,0.202126338,0.271800493,0.245524297,0.301047504,0.262804501,0.591574233,0.248609985,0.198622881,0.205445545,0.257048093,0.185809869,0.180249393,0.197780637,0.23010494,0.252033378,0.215493973,0.268548515,0.288503176,0.494772216,0.344516433,0.442147238,0.44282667,0.369958241,0.23961369,0.19541009,0.203659063,0.179658236,0.324776816,0.161028127,0.181676619,0.412411973,0.070318394,0.632472072,0.702925091,0.544006285,0.302984113,0.353976125,0.205965348,0.562218891,0.572944297,0.525946704,0.557029178,0.50248139,0.506666667,0.1015625,0.708333333,0.536823425,0.572357724,0.552631579,0.75862069,0.785714286,    'ECG-93b96288-423a-492f-bd28-464364d23ea0_qrs_manual.txt',7.733333333,3
0.327029157,0.248618785,0.377584551,0.353070175,0.196217494,0.288793103,0.328833173,0.304775281,0.371603118,0.403667287,0.381546667,0.231455833,0.293988571,0.426160773,0.40791433,0.58988764,0.436592819,0.427944987,0.349028001,0.512524085,0.693728522,0.725731895,0.596153846,0.462686567,0.471494762,0.421531439,0.414325416,0.459452298,0.501143767,0.494101363,0.426634678,0.346752182,0.324214832,0.435907955,0.700960916,0.624645696,0.457477001,0.453671625,0.421824029,0.057887811,0.127895062,0.116129954,0.141418457,0.135508894,0.204206957,0.149932108,0.111467848,0.058173274,0.134561996,0.070776697,0.026944636,0.080805809,0.08813161,0,0,0.027613412,0.081983806,0.034234234,0.046428571,0,0,0,0,0,0,    'ECG-9446a3fe-dbe8-46d8-8662-499301508ba9_qrs_manual.txt',11.7,5
0.517241379,0.294434712,0.443057214,0.417187035,0.304843305,0.438743369,0.405737705,0.345930233,0.324832483,0.373111396,0.448908046,0.248787343,0.269714286,0.484517304,0.495106685,0.6582397,0.500778447,0.618887674,0.495106685,0.582163501,0.683344368,0.703692494,0.517857143,0.495270128,0.326759606,0.383186766,0.491209402,0.556340801,0.558931838,0.509047205,0.595852215,0.49655685,0.400686845,0.469157443,0.6716225,0.54457238,0.515589535,0.403237386,0.414365587,0.110884277,0.119263387,0.096134845,0.16459084,0.118066215,0.172563312,0.09966925,0.091640545,0.049661705,0.110035828,0.09393528,0.157247111,0.081744327,0.108695652,0.072450805,0.025278059,0,0.024150268,0.117829457,0.065,0,0.020043732,0.069565217,0.068181818,0.191865606,0.027255639,    'ECG-945bdccd-29d6-4e7b-a390-5d50597d88bd_qrs_manual.txt',11.2,4
0.042735043,0.144900519,0.150662252,0.156272183,0.142250531,0.083028017,0.37385046,0.375,0.23690369,0.275943662,0.236844444,0.219126247,0.178487395,0.089950302,0.064728659,0.119758838,0.196888673,0.152720236,0.109891785,0.317533719,0.495002754,0.276280984,0.396226415,0.23849823,0.195065045,0.19572392,0.062613357,0.166296276,0.156517209,0.21014458,0.189534286,0.139121909,0.393538566,0.33231584,0.365942629,0.390681852,0.272673378,0.264585928,0.246785991,0.196035138,0.51853554,0.464081483,0.211308341,0.38678812,0.325833223,0.243092335,0.307940174,0.412809383,0.140173201,0.257078998,0.294704503,0.224062828,0.661625709,0.769230769,0.668896321,0.854111406,0.741758242,0.76,0.044827586,0,0.313241576,0.346666667,0.647058824,0.634698276,0.534562212,    'ECG-94b1079f-5008-4dc5-9540-98d621d97857_qrs_manual.txt',6.633333333,3
0.151515152,0.081645181,0.06563504,0.103517957,0.167785235,0.310634599,0.247703117,0.318181818,0.251558489,0.157183099,0.218051948,0.099751294,0.199533528,0.172830093,0.132185073,0.162173892,0.173007609,0.228934299,0.242809995,0.496541268,0.387816941,0.280843516,0.257978723,0.210728536,0.185809869,0.174262052,0.166939373,0.156755287,0.132205691,0.140782696,0.220242535,0.223449055,0.259978909,0.360893872,0.250879745,0.238451448,0.221305011,0.196422819,0.191603083,0.16363579,0.242430336,0.163163275,0.132916781,0.266426807,0.42962546,0.185161235,0.314005701,0.399029722,0.254864557,0.209456608,0.158142776,0.259672854,0.465838509,0.319526627,0.334448161,0.598290598,0.429708223,0.2375,0.144444444,0.078787879,0.345368917,0.470588235,0.633333333,0.498850575,0.443877551,    'ECG-94d3250c-0323-4f99-b6dd-2402ea73c7fe_qrs_manual.txt',5.6,3
0.359477124,0.205570902,0.351287712,0.278477885,0.164444444,0.318161894,0.247703117,0.278846154,0.290685379,0.351614109,0.417722222,0.231455833,0.288979592,0.230661504,0.223781407,0.289954721,0.309826203,0.245927483,0.231281456,0.546143113,0.60666138,0.632388549,0.61328125,0.403745603,0.35976258,0.19572392,0.32606594,0.325727936,0.329604299,0.330838988,0.293453042,0.294334546,0.319629984,0.350987769,0.588973906,0.571346348,0.496276229,0.391570492,0.339208279,0.283479061,0.318902357,0.382148224,0.241928586,0.250989901,0.408615869,0.124350588,0.123994886,0.083811395,0.042251668,0.151214956,0.135868257,0.337720743,0.691699605,0.84965035,0.658761528,0.728506787,0.713942308,0.651428571,0,0.039393939,0,0,0.139534884,0.411140584,0.548319328,    'ECG-952dc2c1-e07b-4f9f-a1e3-679d3730c5fb_qrs_manual.txt',9.466666667,4
0.106382979,0.13121547,0.203347824,0.131530484,0.090909091,0.254683682,0.531102627,0.506578947,0.222772277,0.287530058,0.329323308,0.223175222,0.210714286,0.123009959,0.101905622,0.113628126,0.103957219,0.085612853,0.089019583,0.458786582,0.441296447,0.184192321,0.150684932,0.085820896,0.04373779,0,0.11388505,0.145580779,0.178265236,0.100607024,0.066057728,0.154096407,0.472319853,0.398607641,0.373990101,0.321027543,0.22727866,0.17338552,0.151598371,0.206483007,0.404213432,0.542706491,0.282780686,0.31248979,0.734519362,0.250542844,0.379281551,0.605909081,0.86649194,0.952445179,0.925738087,0.840314281,0.459866221,0.439349112,0.483091787,0.344615385,0.361204013,0.742528736,0.083870968,0.077380952,0.484693878,0.700952381,0.7,0.633461047,0.704285714,    'ECG-9539528e-a183-441c-b2a8-b581d0a8be0d_qrs_manual.txt',6,3
0.207907294,0.113370166,0.173977406,0.159526724,0.116465863,0.357796765,0.247703117,0.278846154,0.266766299,0.275943662,0.266990741,0.161588181,0.162169982,0.015896672,0.040071584,0.018040829,0.058185011,0.044093947,0.019325303,0.601156069,0.467353952,0.454381536,0.291666667,0.074980827,0.066886214,0.074315896,0.100217808,0.142840015,0.132036772,0.137836834,0.170833088,0.20753928,0.361023771,0.348824735,0.429439285,0.404983883,0.312233954,0.238699824,0.157665052,0.686598591,0.695169767,0.891621455,0.587943329,0.545791252,0.779083467,0.053671657,0.295425174,0.239861064,0.231744564,0.59256543,0.624372408,0.51846976,0.634057971,0.706153846,0.794314381,0.869822485,1,0.633333333,0,0.080246914,0.073203194,0.156097561,0.411764706,0.689655172,0.916208791,    'ECG-9597b846-ab70-4480-a74b-dbdbd0a89e3e_qrs_manual.txt',6.066666667,3
0.481481481,0.270631906,0.458940397,0.431336963,0.294117647,0.419567339,0.300546448,0.345930233,0.333804809,0.419826652,0.508990826,0.272024146,0.320285714,0.402293071,0.391098662,0.581846222,0.436592819,0.385910005,0.319875776,0.146917148,0.673149016,0.595287309,0.596153846,0.515945453,0.249310662,0.502843901,0.479097357,0.506477821,0.592784886,0.638158364,0.472602415,0.433240801,0.40221276,0.435915302,0.624129853,0.620656997,0.575994284,0.391561152,0.519026375,0.156618038,0.167873865,0.147209362,0.187887423,0.280075292,0.312537123,0.328369331,0.125271484,0.097221473,0.13373503,0.151650018,0.41854382,0.055070682,0.054347826,0.129807692,0.024703557,0.071794872,0.292899408,0.316666667,0.022033898,0,0.042356565,0.042666667,0.086956522,0.421960073,0.024086379,    'ECG-95a96bdc-bc35-48e3-a985-eba8038ae1c8_qrs_manual.txt',11.86666667,5
0.291005291,0.13121547,0.351287712,0.237829674,0.098265896,0.229270861,0.314525353,0.360294118,0.222772277,0.259242958,0.311323529,0.10222087,0.067428571,0.162931769,0.202126338,0.233434842,0.169715733,0.208569762,0.135078913,0.451589595,0.58910162,0.324425497,0.201970443,0.152833119,0.156774022,0.132690562,0.244553511,0.230963642,0.302089659,0.194548856,0.191176316,0.222055178,0.387880949,0.417636527,0.456002407,0.340457785,0.23256949,0.164762517,0.127574248,0.303219798,0.170214068,0.521490792,0.225011386,0.180022097,0.398697036,0.216982514,0.252404771,0.207305742,0.483102265,0.532136995,0.229379821,0.104281537,0.615942029,0.346153846,0.611413043,0.384615385,0.445054945,0.844444444,0,0,0.122005324,0.589473684,0.774193548,0.649014778,0.478021978,    'ECG-95c7285e-29c4-4880-b9e2-5931911018b8_qrs_manual.txt',8.033333333,3
0.143570537,0.150612539,0.111803662,0.153055051,0.10331384,0.281749369,0.286885246,0.16460396,0.170957096,0.195085406,0.329323308,0.178223336,0.210714286,0.172830093,0.18499102,0.237537585,0.19338447,0.163307364,0.162281011,0.488744772,0.480970467,0.396610169,0.318965517,0.371852394,0.326759606,0.3385265,0.161613765,0.225996364,0.180700724,0.198385343,0.185952932,0.176457415,0.197278819,0.211491978,0.377134225,0.331019926,0.386947078,0.337155878,0.359002262,0.126481965,0.182484661,0.134821613,0.165082943,0.206383906,0.549968499,0.107193551,0.260104184,0.125522652,0.177107312,0.105686763,0.124310963,0.077011848,0.362318841,0.465517241,0.310559006,0.538461538,0.482142857,0.653763441,0.12745098,0,0.025510204,0.449122807,0.184210526,0.534482759,0.23015873,    'ECG-96bed12b-2868-4f44-880a-5c1ed35f7a09_qrs_manual.txt',5.3,2
0.232067511,0.194948698,0.303107489,0.313840156,0.157894737,0.419567339,0.456674473,0.525,0.324832483,0.388106416,0.410247934,0.178223336,0.192329818,0.276130682,0.292564745,0.33866698,0.368983957,0.409522876,0.319875776,0.563837339,0.683344368,0.345378957,0.425324675,0.268656716,0.264314768,0.250686849,0.266501993,0.31558192,0.339032588,0.380074622,0.346180741,0.365162613,0.529847901,0.514594676,0.61416828,0.529659423,0.384947136,0.281885146,0.291052263,0.116169255,0.219812537,0.296037825,0.205394565,0.101296624,0.38586108,0.117160889,0.259188361,0.211562541,0.219808345,0.309609438,0.175918722,0.13106674,0.140252454,0.283216783,0.223785166,0.329059829,0.122171946,0.445045045,0.1,0,0.042356565,0.255072464,0.394736842,0.5830721,0.533549784,    'ECG-96d1fffa-000c-4146-ab5d-f145e061e215_qrs_manual.txt',10.83333333,4
0.387205387,0.220441989,0.326504359,0.293197021,0.2,0.374650513,0.176609768,0.488636364,0.222772277,0.305633803,0.417722222,0.244354476,0.199533528,0.332215599,0.374866196,0.43432778,0.407282619,0.473503859,0.359187109,0.554913295,0.516873389,0.489780658,0.45,0.438173372,0.37477445,0.324672352,0.366487684,0.399734027,0.386058658,0.417788112,0.409981004,0.396118579,0.269924208,0.292015516,0.453985115,0.470756649,0.485004279,0.403459399,0.32908208,0.163909896,0.131878237,0.175231999,0.122397387,0.100788068,0.236586788,0.068527268,0.243387099,0.098361544,0.145058953,0.128238172,0.112698841,0.079778499,0.030193237,0.173076923,0.150966184,0.145530146,0.144230769,0.324786325,0.26,0.166666667,0.047763786,0.072727273,0.046511628,0.219274978,0.426470588,    'ECG-96d31675-65a8-49f5-9f98-b301a827d261_qrs_manual.txt',8.533333333,3
0.380116959,0.228200817,0.332565505,0.319193506,0.25,0.51208674,0.551001821,0.525,0.324832483,0.419826652,0.508990826,0.307892238,0.230421377,0.258993625,0.391098662,0.466125922,0.514603044,0.545635286,0.374866196,0.572919331,0.58910162,0.202324962,0.2421875,0.245802239,0.231412362,0.246983292,0.371859031,0.426987456,0.42459081,0.497301739,0.514772417,0.463382772,0.549438379,0.567122384,0.474771294,0.450057867,0.421946335,0.385741262,0.312337977,0.24175479,0.150519225,0.164347158,0.046291102,0.085546691,0.391382169,0.130985305,0.209158354,0.767803607,0.586045967,0.502635118,0.346921925,0.201396163,0.362318841,0.224532225,0.257437071,0.026923077,0.025961538,0.308943089,0.08,0.067708333,0.341614907,0.66031746,0.564102564,0.520037279,0.426470588,    'ECG-97130d1f-851f-4ecc-8964-b634b8f26ec4_qrs_manual.txt',11.73333333,5
0.102880658,0.128575632,0.173977406,0.229446164,0.127572016,0.318161894,0.358483113,0.16460396,0.244163866,0.287530058,0.266990741,0.137134503,0.162169982,0.069666688,0.118077601,0.237537585,0.237648082,0.142402273,0.146905912,0.379257288,0.487933458,0.55217161,0.253968254,0.197652514,0.214400116,0.18944526,0.117278887,0.22482615,0.225057337,0.303362604,0.204404163,0.21744419,0.232584541,0.213970361,0.519029177,0.454932472,0.29168163,0.259679705,0.232568638,0.308594358,0.319935628,0.245344166,0.217729001,0.370193215,0.616354417,0.249442798,0.184830117,0.068768285,0.245395602,0.309753118,0.173625245,0.215717073,0.608695652,0.716180371,0.434782609,0.504807692,0.572944297,0.612903226,0.245283019,0.044217687,0,0.148837209,0.529411765,0.83512931,0.448809524,    'ECG-9765f801-cde7-40f7-a7b4-9d55b504be90_qrs_manual.txt',6.266666667,3
0.359477124,0.162473167,0.270367572,0.25528106,0.211678832,0.366148399,0.37385046,0.421296296,0.189557417,0.259242958,0.299758454,0.1714353,0.192329818,0.055282686,0.209207854,0.308846176,0.261742314,0.224785263,0.22008547,0.610913719,0.280927835,0.241595655,0.14479638,0.123648996,0.10130719,0.105507426,0.201704982,0.24103712,0.323715138,0.296733763,0.338885332,0.367476507,0.502982202,0.369376895,0.371901057,0.28586856,0.301053212,0.223739644,0.191535111,0.578297115,0.277426548,0.289652545,0.265188801,0.340533934,0.459497241,0.121662992,0.383337195,0.280848986,0.594028564,0.521446512,0.501118862,0.359925675,0.73757764,0.692307692,0.559947299,0.605769231,0.397058824,0.410810811,0,0.193452381,0.156620788,0.792380952,0.470588235,0.896551724,0.887755102,    'ECG-981f36a2-cd1b-46c6-b1bb-2eee7c15ac80_qrs_manual.txt',6.866666667,3
0.180802104,0.136590561,0.182119205,0.172932331,0.116465863,0.217137672,0.094457455,0.134615385,0.147556691,0.275943662,0.222657952,0.087817309,0.118876961,0.280529499,0.344033579,0.375915975,0.363754543,0.368874089,0.344033579,0.410663446,0.487933458,0.402684564,0.338235294,0.260876469,0.221102941,0.180249393,0.249207442,0.309781589,0.287510883,0.299458939,0.29864625,0.257439743,0.116296317,0.168326291,0.328458286,0.359499691,0.278129915,0.195605375,0.202201142,0.06163755,0.029521283,0.072344635,0.030254795,0.059572156,0.194750867,0.136991975,0.195529373,0.148583315,0.288525483,0.1969719,0.074313338,0.10964127,0,0,0.033967391,0,0,0.036190476,0.027083333,0,0,0.191452991,0.393939394,0.213793103,0.285714286,    'ECG-985b2fd1-3455-41e7-b87f-464f65617554_qrs_manual.txt',6.1,3
0.352798054,0.133886922,0.212208465,0.106186519,0.111111111,0.036938653,0.211021974,0.154411765,0.183252224,0.41167002,0.256666667,0.131398455,0.192329818,0.028439677,0.175081999,0.179775281,0.183059587,0.174174327,0.202126338,0.246628131,0.495002754,0.367413887,0.266129032,0.17595123,0.170955882,0.262033916,0.153580506,0.192315451,0.199239039,0.137556416,0.137683308,0.14100838,0.089344313,0.235684643,0.376550727,0.327938619,0.287418293,0.226823235,0.301188594,0.409301559,0.277380718,0.401380119,0.143519669,0.279574019,0.184519244,0.329692666,0.192741299,0.169095653,0.31640474,0.364416367,0.257358667,0.105772193,0.836120401,0.593406593,0.504658385,0.319088319,0.319526627,0.548888889,0.387234043,0.043333333,0.102040816,0.605405405,0.764705882,0.896551724,0.596320346,    'ECG-989ba553-cb08-479b-b4d5-5a3ae87e7428_qrs_manual.txt',4.7,2
0.416666667,0.261623459,0.364238411,0.377475948,0.254593176,0.318161894,0.358483113,0.360294118,0.251558489,0.331228752,0.417722222,0.276898208,0.247238095,0.402293071,0.344033579,0.479378322,0.424661843,0.434227672,0.36957976,0.496541268,0.60666138,0.50467999,0.622047244,0.481965174,0.340570934,0.26980198,0.406082584,0.441564404,0.428688174,0.520815046,0.43258151,0.385801876,0.332892216,0.403211561,0.515017872,0.571241712,0.501515794,0.432181481,0.352570998,0.133115435,0.243270053,0.189232604,0.201353718,0.213669958,0.224210605,0.156156153,0.178925488,0.12356899,0.013042916,0.098482685,0.206223014,0.184415117,0.117508813,0.05465587,0,0.080769231,0.163967611,0.2,0.136842105,0.038011696,0.044897959,0,0.113636364,0.267241379,0.172619048,    'ECG-99059a1c-a476-4028-9599-feb7010d89fc_qrs_manual.txt',10.83333333,4
0.333333333,0.248618785,0.344955201,0.308565531,0.223880597,0.366148399,0.439260193,0.304775281,0.274587459,0.358651911,0.417722222,0.292007797,0.256025779,0.414078675,0.488352917,0.550704931,0.487299465,0.561178445,0.501949318,0.504466632,0.597807094,0.604334537,0.579545455,0.515945453,0.484375,0.372836057,0.411486904,0.460975067,0.472603372,0.458523057,0.499689581,0.467367939,0.347563977,0.363042444,0.560555697,0.542206202,0.514119854,0.510200861,0.434083868,0.073405802,0.059082814,0.121946931,0.064152763,0.083082138,0.162389174,0.205246091,0.142092295,0.08265872,0.065646677,0.073515482,0.074087519,0.043166833,0.029377203,0,0.02787068,0,0,0.061788618,0.29137931,0,0,0,0.068181818,0.072884013,0.053113553,    'ECG-997b2c96-5c0a-46c0-9581-1dc8500a0bb8_qrs_manual.txt',10.26666667,4
0.456187895,0.261623459,0.458940397,0.353070175,0.232323232,0.318161894,0.18784153,0.266304348,0.282559025,0.358651911,0.440911681,0.244354476,0.320285714,0.47095197,0.481686295,0.521111034,0.467701191,0.538011268,0.488352917,0.554913295,0.399131479,0.527882003,0.517857143,0.284730195,0.364705882,0.218688119,0.486047368,0.489599817,0.505177286,0.462967603,0.498041129,0.446575423,0.29272579,0.308526072,0.560072663,0.552304492,0.465150066,0.408902758,0.451330217,0.11792225,0.086661842,0.176025799,0.11384797,0.098932187,0.116776918,0.060676475,0.322442067,0.111635284,0.143627672,0.309820773,0.173365934,0.21523921,0.135869565,0.129807692,0.185577943,0.110453649,0.159763314,0.09047619,0.023636364,0.163522013,0.044017607,0.24964539,0.30952381,0.450090744,0.258928571,    'ECG-99b4a709-9fb7-4547-8c86-78e42ac00c58_qrs_manual.txt',9.633333333,4
0.222222222,0.21290172,0.270367572,0.273708747,0.192488263,0.211206897,0.211021974,0.471153846,0.244163866,0.281690141,0.361197917,0.192369034,0.256025779,0.176191206,0.310576321,0.33866698,0.374271801,0.380168964,0.296996165,0.473526012,0.615668326,0.512297693,0.401898734,0.342223792,0.249310662,0.218688119,0.23318343,0.341140018,0.322774304,0.37898269,0.331795361,0.265236754,0.2731686,0.373862005,0.497923786,0.43937612,0.391795018,0.281426252,0.268137498,0.26399162,0.174507216,0.21039367,0.182910148,0.166489334,0.266621373,0.122669385,0.144344628,0.08718617,0.137185777,0.214550031,0.237633892,0.254398121,0.507246377,0.213800905,0.296442688,0.307692308,0.152714932,0.633333333,0.023636364,0.077380952,0,0.050793651,0.263157895,0.565922921,0.601382488,    'ECG-99c3fa1b-82e5-4e9a-baa8-99f06d6179f5_qrs_manual.txt',7.866666667,3
0.44,0.2994294,0.370860927,0.37122807,0.310344828,0.401101533,0.343481655,0.360294118,0.282559025,0.344699778,0.402896175,0.276898208,0.386631717,0.385147146,0.455858374,0.492951992,0.363754543,0.610311518,0.583624151,0.630976176,0.704306773,0.527882003,0.425324675,0.48857113,0.434887771,0.469856232,0.470784986,0.536870842,0.465291294,0.528399818,0.616899927,0.561388933,0.401064076,0.473988083,0.53943131,0.454777648,0.488076558,0.456311265,0.565851972,0.134772472,0.157257908,0.163346596,0.135845097,0.13863406,0.105347003,0.094481549,0.122598916,0.155570563,0.237640064,0.090436794,0.065386754,0.111299042,0.326086957,0.202626642,0.362318841,0.210131332,0,0,0.021666667,0,0,0.024806202,0.023255814,0.02607233,0.115079365,    'ECG-99c739d3-de8c-4bb0-8fff-32d02b2e3c2f_qrs_manual.txt',11.16666667,4
0.057471264,0.069443264,0.06563504,0.093117409,0.093333333,0.161562575,0.901639344,0,0.10005211,0.138028169,0.167108434,0.059697856,0.106067416,0.114427164,0.15297503,0.176193514,0.183059587,0.181579961,0.140941434,0.00932314,0.371407114,0.187744459,0.153669725,0.170010413,0.145882353,0.145929102,0.086057378,0.149284655,0.126469241,0.13511865,0.170780703,0.09645107,0.014873332,0.058949496,0.125937635,0.157682338,0.169851185,0.135224375,0.146748758,0.124684437,0.137148087,0.152567138,0.07381592,0.23394705,0.412409537,0.67219791,0.195779352,0.468287019,0.384518908,0.252596387,0.122159466,0.134713352,0.27173913,0.192307692,0.260869565,0.041420118,0.222527473,0.226190476,0.544186047,0.201550388,0.495198079,0.711111111,0.482758621,0.514687101,0.478021978,    'ECG-99d611da-a84a-4e44-986b-4f7cff6ea89f_qrs_manual.txt',2.066666667,1
0.536062378,0.379066912,0.576654082,0.527665317,0.377777778,0.583933308,0.592505855,0.506578947,0.352310231,0.445265653,0.556858974,0.38731444,0.393333333,0.599069014,0.633784049,0.695345104,0.657056498,0.672881218,0.728084656,0.651802918,0.772175156,0.180676245,0.649193548,0.57570924,0.569852941,0.63490099,0.623841774,0.707628718,0.694133261,0.690959938,0.753930456,0.743632221,0.660119976,0.59532512,0.683427313,0.684443554,0.637725155,0.638317715,0.638140074,0.064909487,0.06114069,0.147969153,0.123255632,0.150979356,0.12356483,0.088670214,0.153803224,0.347375276,0.092624867,0.091741079,0.058868246,0.032232047,0,0.021193093,0.022644928,0.022435897,0.042386185,0,0.207246377,0,0.12244898,0.080503145,0.040816327,0.02137931,0.021577381,    'ECG-9a2ac17e-d5b4-442a-a3be-462b3b6d8f99_qrs_manual.txt',15.7,5
0.42432196,0.194948698,0.314639989,0.205561072,0.161147903,0.419567339,0.358483113,0.21875,0.342962131,0.365816521,0.417722222,0.253289474,0.265081788,0.219120273,0.306001188,0.299305516,0.309826203,0.326047688,0.279546015,0.582163501,0.643645653,0.512297693,0.476027397,0.2766061,0.260504202,0.246983292,0.314581516,0.329850877,0.301388884,0.302165867,0.303039689,0.341358153,0.308253375,0.365541276,0.546951617,0.512363423,0.394821905,0.328079385,0.29656548,0.377834124,0.139363562,0.270740047,0.125928118,0.179409589,0.456259884,0.075488499,0.075969626,0.218929392,0.163750298,0.369542929,0.242543912,0.166568842,0.237771739,0.152714932,0.169836957,0.130536131,0.162259615,0.171171171,0.069642857,0,0.044017607,0.071111111,0.421052632,0.445402299,0.251082251,    'ECG-9a314fdf-8670-44e1-9a3c-0e6eb73f572a_qrs_manual.txt',8.266666667,3
0.222222222,0.165533362,0.275639878,0.213319924,0.151515152,0.38330721,0.37385046,0.390060241,0.189557417,0.127117133,0.204585987,0.38731444,0.140987013,0.215349,0.262804501,0.333567416,0.30522845,0.291399192,0.306001188,0.466097807,0.480970467,0.262904468,0.16588785,0.204126427,0.135371179,0.192569497,0.25766994,0.297162815,0.295267441,0.300010878,0.279557885,0.295729958,0.401224319,0.388087608,0.291809365,0.188353326,0.210450609,0.21508047,0.200162672,0.167273666,0.184313653,0.225343994,0.134464793,0.16838079,0.379614575,0.20002924,0.314608495,0.412820366,0.350680399,0.27525003,0.364309695,0.133684824,0.245441795,0.251748252,0.27173913,0.302884615,0.389423077,0.325714286,0.088135593,0.270833333,0.448979592,0.733333333,0.7,0.605747126,0.5,    'ECG-9a344be5-57d4-4b5c-b7c3-90a86922d094_qrs_manual.txt',6.1,3
0.49905838,0.309668508,0.42018543,0.390278976,0.264,0.4586714,0.343481655,0.390060241,0.244163866,0.218309859,0.361197917,0.192369034,0.242941176,0.414078675,0.380214101,0.381469884,0.514603044,0.569101419,0.374866196,0.563837339,0.539793814,0.46125908,0.291666667,0.323613148,0.313419118,0.289973196,0.474016473,0.474947107,0.41366652,0.519584761,0.526175818,0.471645052,0.444824076,0.455937482,0.431564143,0.330365427,0.359457551,0.352342502,0.348607756,0.182044057,0.300168716,0.334821537,0.125481429,0.117035562,0.343408304,0.126471164,0.282539898,0.160178121,0.267270626,0.189103346,0.138890293,0.114094724,0.054347826,0.079881657,0.241545894,0.052532833,0,0.092682927,0.020967742,0.074712644,0.023881893,0.374774775,0.189189189,0.260018639,0.08877551,    'ECG-9b028594-0d48-4951-ad8e-a9b48da4e4b4_qrs_manual.txt',9.533333333,4
0.274074074,0.224293493,0.384411615,0.319193506,0.207729469,0.303232759,0.358483113,0.390060241,0.324832483,0.436619718,0.457043478,0.262508122,0.234534161,0.352649638,0.43732445,0.566074665,0.474153298,0.538011268,0.385624555,0.183949158,0.683344368,0.661893629,0.67768595,0.432246661,0.335913313,0.311290504,0.327294663,0.444312402,0.457712115,0.451703069,0.477336685,0.384710006,0.333984694,0.473436972,0.620299525,0.66841861,0.486414735,0.36689757,0.322570297,0.064372394,0.064254859,0.106592015,0.096359685,0.067841657,0.185423787,0.463531146,0.154106767,0.091631221,0.080294681,0.158909202,0.178094849,0.131823833,0.031969309,0.027327935,0.02787068,0.056680162,0,0.032478632,0.278571429,0,0,0,0.093023256,0.317800559,0.365546218,    'ECG-9b7ddc9b-db13-4b58-b8a4-59cae6b7fb88_qrs_manual.txt',11.96666667,5
0.163776493,0.125966851,0.150662252,0.162819329,0.083798883,0.078924823,0.007840342,0.088302752,0.10005211,0.199597586,0.20021097,0.143015767,0.089297297,0.19703657,0.195176572,0.28534876,0.200424877,0.152720236,0.132185073,0.322768359,0.382273576,0.390616231,0.262032086,0.185074627,0.096758703,0.070138459,0.189275314,0.202310789,0.22527469,0.182652098,0.158244124,0.072396898,0.070882851,0.135177766,0.275485224,0.271561249,0.199019802,0.150433709,0.099854454,0.123132461,0.275263924,0.15090305,0.17016392,0.283847499,0.358874828,0.111729234,0.300335737,0.054166456,0.209264776,0.255588804,0.442698622,0.310352942,0.232919255,0.074175824,0,0.230769231,0.230769231,0.422222222,0.056521739,0,0.028061224,0.335238095,0.466666667,0.475095785,0.604166667,    'ECG-9b9bf08a-ade9-4e5c-9696-66d313bebffa_qrs_manual.txt',4,2
0.291005291,0.205570902,0.230606994,0.298245614,0.161147903,0.288793103,0.358483113,0.405487805,0.195971321,0.264722191,0.294100719,0.203508772,0.414204082,0.284975615,0.22008547,0.258643042,0.274331551,0.263583815,0.227513228,0.43752779,0.422716713,0.434322034,0.374233129,0.310210312,0.272058824,0.246983292,0.308179592,0.311350881,0.232642155,0.27810452,0.300372159,0.271246508,0.35385768,0.348064053,0.419973909,0.400184749,0.366201056,0.351691691,0.30467484,0.184335508,0.386630775,0.229409066,0.280235314,0.227588166,0.410664085,0.286943584,0.457820305,0.149934549,0.200307376,0.171493748,0.202214316,0.208836316,0.395256917,0.519230769,0.362318841,0.370192308,0.324519231,0.298039216,0,0.12037037,0.074829932,0.234146341,0.486486486,0.415708812,0.426470588,    'ECG-9bda0e64-2769-4c02-b820-fddfda0cb30d_qrs_manual.txt',8.433333333,3
0.464480874,0.2994294,0.443057214,0.44598338,0.333333333,0.38330721,0.551001821,0.345930233,0.324832483,0.436619718,0.527601246,0.373827651,0.331428571,0.352649638,0.374866196,0.513940907,0.480685555,0.645325892,0.324601729,0.601156069,0.683344368,0.714612918,0.668032787,0.523036989,0.532417347,0.502843901,0.468695777,0.506907217,0.542608628,0.588276842,0.620852513,0.545073786,0.433535438,0.45041933,0.659534669,0.655588465,0.571406897,0.609462454,0.546913761,0.168543059,0.172190656,0.141172461,0.193501282,0.113512356,0.213165465,0.111131319,0.104391975,0.033981705,0.072397822,0.116094305,0.106706511,0.063618328,0.1393534,0.151969981,0.077639752,0.075134168,0.023076923,0.172727273,0.063934426,0,0,0,0.063829787,0.066810345,0.096345515,    'ECG-9c06294e-f270-4fec-baa7-98ca6b0fc956_qrs_manual.txt',12.46666667,5
0.333333333,0.284685083,0.377584551,0.396839205,0.223880597,0.429064039,0.405737705,0.304775281,0.290685379,0.351614109,0.433050847,0.26722807,0.234534161,0.464302297,0.488352917,0.623139994,0.581468951,0.601849711,0.508882582,0.582163501,0.693728522,0.651890482,0.61328125,0.537532924,0.345283676,0.439053177,0.431018494,0.509660603,0.501567564,0.558131049,0.499592146,0.463081675,0.423315049,0.425097383,0.595577622,0.576605154,0.537958409,0.46507338,0.409971368,0.03418736,0.10862267,0.040064438,0.097113948,0.054341117,0.188424015,0.068345075,0.100175574,0.067626524,0.036205526,0.075370759,0.156649665,0.029297957,0,0,0,0,0,0.03015873,0.063934426,0,0,0,0,0.203612479,0,    'ECG-9c0d9240-f64b-406d-991c-3a535c054584_qrs_manual.txt',10.9,4
0.106382979,0.063619622,0.068498567,0.122807018,0.047619048,0.281749369,0.328833173,0.345930233,0.282559025,0.305633803,0.348153846,0.199742856,0.251599147,0.046060758,0.076636905,0.101658641,0.126486056,0.152720236,0.115326352,0.520716957,0.663137364,0.434322034,0.358433735,0.123648996,0.113012852,0.103159279,0.064256811,0.107513835,0.095031218,0.126395671,0.124351337,0.160407107,0.41138063,0.427365281,0.447816424,0.403776694,0.260622965,0.186535723,0.240808712,0.316350329,0.237216265,0.333884984,0.266938387,0.193902815,0.560693846,0.18243999,0.165556227,0.29132962,0.2278033,0.55166666,0.416371666,0.442161314,0.860507246,0.5625,0.498188406,0.74556213,0.479289941,0.717777778,0,0,0.073203194,0.390243902,0.53125,0.847800238,0.571428571,    'ECG-9cb4997e-b5a9-4b2e-91dd-f7233777badf_qrs_manual.txt',7.133333333,3
0.263157895,0.205570902,0.291893126,0.269005848,0.192488263,0.374650513,0.273531037,0.375,0.244163866,0.542176134,0.381546667,0.196029981,0.222370821,0.250690102,0.262804501,0.313689521,0.323911383,0.336416185,0.271089404,0.451589595,0.447669207,0.38470116,0.27027027,0.2766061,0.249310662,0.289973196,0.272075528,0.309320822,0.32093756,0.322630372,0.343980218,0.318684947,0.348049499,0.35755696,0.420894134,0.302297066,0.342854825,0.286542943,0.312619177,0.190458935,0.346191347,0.352212128,0.206591809,0.241990763,0.425457134,0.141352656,0.390720095,0.234177185,0.441368033,0.287218055,0.245121105,0.12184515,0.441576087,0.292067308,0.197628458,0.228438228,0.305429864,0.316666667,0.114035088,0,0.124716553,0.533333333,0.444444444,0.440162272,0.188311688,    'ECG-9d577f35-8973-4735-9dfb-54a20455ddc2_qrs_manual.txt',7.466666667,3
0.194109772,0.184751381,0.260032455,0.259793319,0.136268344,0.318161894,0.389597248,0.390060241,0.202496771,0.218309859,0.171070707,0.168109162,0.178487395,0.153302178,0.181657848,0.165633475,0.282936315,0.228934299,0.209207854,0.53752285,0.547680412,0.324425497,0.17535545,0.172966941,0.185809869,0.19572392,0.219834969,0.298484996,0.257291852,0.350828325,0.273342023,0.251719141,0.428515221,0.402360629,0.32050278,0.276448185,0.196749798,0.204716698,0.220415374,0.279117376,0.30654719,0.50099409,0.198001105,0.21691766,0.472314718,0.133090014,0.255728207,0.333485724,0.451180413,0.244386643,0.286322345,0.189567935,0.543478261,0.454326923,0.579710145,0.338461538,0.46898263,0.498989899,0.063934426,0,0.082130413,0.396190476,0.833333333,0.498850575,0.586904762,    'ECG-9e1b8dbf-a10e-4689-ae36-bfc3f7c047bd_qrs_manual.txt',7.566666667,3
0.641025641,0.216645116,0.291893126,0.324627358,0.278688525,0.410248147,0.247703117,0.254032258,0.189557417,0.259242958,0.361197917,0.26722807,0.256025779,0.390793178,0.283840388,0.387084825,0.368983957,0.682326897,0.296996165,0.554913295,0.563841474,0.440915017,0.374233129,0.366763742,0.201384923,0.262033916,0.415196096,0.37118729,0.351393976,0.384750545,0.574472845,0.42493962,0.364864057,0.312714444,0.41316059,0.401966036,0.409834754,0.354349849,0.368258656,0.175684334,0.278729369,0.184611321,0.212976713,0.065052476,0.309478821,0.073555766,0.197706558,0.123798087,0.187042891,0.15201014,0.352055364,0.182588279,0.08813161,0.148351648,0.124223602,0.061538462,0.024150268,0.126666667,0.044827586,0,0.074829932,0.286178862,0.384615385,0.475095785,0.258928571,    'ECG-9e65306d-7541-4a22-b7fb-e9c320d85492_qrs_manual.txt',8.7,3
0.416666667,0.232165181,0.338715135,0.313840156,0.288888889,0.366148399,0.328833173,0.345930233,0.215894156,0.299499476,0.354625323,0.196029981,0.222370821,0.332215599,0.385624555,0.513940907,0.507646718,0.409522876,0.419464486,0.554913295,0.539793814,0.285459411,0.333333333,0.26474579,0.249310662,0.239690722,0.380928217,0.437603894,0.44804077,0.498116714,0.47498405,0.414340712,0.36969916,0.319200944,0.35522532,0.392173871,0.383145494,0.321164607,0.309434024,0.149055628,0.134791326,0.109319258,0.061057566,0.240968597,0.244483425,0.102193679,0.270262688,0.324923329,0.272780268,0.172724513,0.233166273,0.139681133,0.211352657,0.081983806,0.057208238,0,0.218623482,0.19,0.112068966,0.040123457,0.548172757,0.506666667,0.315789474,0.610837438,0.609243697,    'ECG-9e992365-c1d7-49f0-895d-f9f04209ec3c_qrs_manual.txt',8.5,3
